flags	race	level	maxhp	maxsp	params1	params2	params3	params4	params5	skill1	skill2	skill3	skill4	skill5	skill6	skill7	skill8	exp	money	itemId1	itemProb1	itemId2	itemProb2	itemId3	itemProb3	itemId4	itemProb4	eventitemEvent	eventitemId	eventitemProb	attackAttr	attackHit	attackPower
0	1	9	0	0	0	0	0	0	0	0	0	0	0	0	0	0	0	0	0	0	0	0	0	0	0	0	0	0	0	0	0	0	0
0	2	4	97	25	4	4	4	3	4	89	0	0	0	0	0	0	0	25	0	24719	35	24645	10	0	0	0	0	0	0	0	1	70	20
0	2	13	237	30	5	10	9	8	14	20	23	89	0	0	0	0	0	75	0	24720	35	24645	10	0	0	0	0	0	0	0	1	80	20
0	2	22	251	40	15	13	14	14	17	126	89	93	0	0	0	0	0	148	0	24721	35	24637	10	0	0	0	0	0	0	0	1	90	30
0	2	36	364	50	27	21	22	24	21	131	11	14	0	0	0	0	0	381	0	24722	35	24637	10	0	0	0	0	0	0	0	1	95	40
0	2	9	162	25	6	9	7	5	7	40	43	85	0	0	0	0	0	35	0	24723	40	24649	5	0	0	0	0	0	0	0	0	70	20
0	2	18	253	40	10	13	12	10	16	11	13	85	91	0	0	0	0	120	0	24724	35	24649	5	24645	5	0	0	0	0	0	0	80	10
0	2	59	500	120	33	33	35	37	77	95	215	216	817	0	0	0	0	1268	0	24725	30	24640	5	24639	5	0	0	0	0	0	0	90	10
0	2	70	500	0	63	48	38	42	33	0	0	0	0	0	0	0	0	0	0	24726	0	0	0	0	0	0	0	0	0	0	0	95	10
0	2	42	472	150	20	32	27	25	22	78	22	206	0	0	0	0	0	856	0	24727	25	24646	10	24639	5	0	0	0	0	0	1	90	20
0	2	48	482	160	24	37	31	32	27	78	79	22	24	206	800	0	0	1038	0	24728	25	24640	10	0	0	0	0	0	0	0	1	90	20
0	2	63	570	200	30	54	34	36	42	79	22	25	206	801	0	0	0	1698	0	24729	25	24642	5	24644	5	0	0	0	0	0	1	90	20
0	2	73	909	320	34	69	45	39	39	80	22	25	186	206	801	818	0	2388	0	24730	25	24644	10	24648	10	0	0	0	0	0	1	90	20
0	2	2	83	20	2	3	3	2	2	20	0	0	0	0	0	0	0	15	0	24707	40	24649	5	0	0	0	0	0	0	0	1	60	5
0	1	0	0	0	0	0	0	0	0	0	0	0	0	0	0	0	0	0	0	0	0	0	0	0	0	0	0	0	0	0	0	0	0
0	1	0	0	0	0	0	0	0	0	0	0	0	0	0	0	0	0	0	0	0	0	0	0	0	0	0	0	0	0	0	0	0	0
0	1	0	0	0	0	0	0	0	0	0	0	0	0	0	0	0	0	0	0	0	0	0	0	0	0	0	0	0	0	0	0	0	0
0	1	0	0	0	0	0	0	0	0	0	0	0	0	0	0	0	0	0	0	0	0	0	0	0	0	0	0	0	0	0	0	0	0
0	3	3	88	40	2	5	4	2	2	10	191	0	0	0	0	0	0	23	0	24731	35	24649	10	0	0	0	0	0	0	0	1	70	5
0	3	10	176	50	5	10	8	8	6	20	192	0	0	0	0	0	0	40	0	24732	35	24649	5	24645	5	0	0	0	0	0	1	80	20
0	3	40	458	120	23	26	22	24	23	156	195	196	197	57	60	0	0	710	0	24734	30	24645	5	24646	5	0	0	0	0	0	1	90	20
0	3	35	342	80	20	24	22	23	23	190	191	192	41	44	0	0	0	388	0	24733	35	24645	10	0	0	0	0	0	0	0	1	90	20
0	3	12	160	40	6	12	9	8	7	180	181	56	0	0	0	0	0	55	0	24735	40	24645	5	0	0	0	0	0	0	0	1	70	20
0	3	18	243	50	9	15	12	13	12	180	181	21	23	0	0	0	0	103	0	24736	35	24649	5	24645	5	0	0	0	0	0	1	80	20
0	3	27	284	60	16	19	18	18	17	180	181	182	41	43	0	0	0	256	0	24737	35	24645	10	0	0	0	0	0	0	0	1	90	20
0	3	61	650	125	32	42	32	39	45	185	186	187	58	61	0	0	0	1363	0	24738	30	24637	5	24640	5	0	0	0	0	0	1	90	20
0	3	39	452	120	21	27	25	22	18	220	12	14	187	0	0	0	0	703	0	24739	30	24640	10	24646	5	0	0	0	0	0	1	90	20
0	3	44	469	140	23	34	27	29	26	221	22	24	93	100	0	0	0	927	0	24740	30	24639	10	0	0	0	0	0	0	0	1	90	20
0	3	53	700	160	33	39	32	32	33	223	42	45	115	804	819	0	0	1359	0	24741	30	24646	10	0	0	0	0	0	0	0	1	90	20
0	3	73	957	190	25	76	43	41	41	220	12	15	62	76	185	799	0	2463	0	24742	25	24644	10	24648	10	0	0	0	0	0	1	90	20
0	3	2	83	15	3	2	4	2	2	10	0	0	0	0	0	0	0	18	0	24708	40	24645	5	0	0	0	0	0	0	0	1	60	5
0	1	0	0	0	0	0	0	0	0	0	0	0	0	0	0	0	0	0	0	0	0	0	0	0	0	0	0	0	0	0	0	0	0
0	1	0	0	0	0	0	0	0	0	0	0	0	0	0	0	0	0	0	0	0	0	0	0	0	0	0	0	0	0	0	0	0	0
0	1	0	0	0	0	0	0	0	0	0	0	0	0	0	0	0	0	0	0	0	0	0	0	0	0	0	0	0	0	0	0	0	0
0	1	0	0	0	0	0	0	0	0	0	0	0	0	0	0	0	0	0	0	0	0	0	0	0	0	0	0	0	0	0	0	0	0
0	4	14	229	40	11	10	10	13	5	110	30	33	0	0	0	0	0	100	0	24743	30	24637	15	0	0	0	0	0	0	0	0	80	20
0	4	20	254	50	14	14	13	16	10	126	71	73	0	0	0	0	0	111	0	24744	40	24649	5	0	0	0	0	0	0	0	0	80	20
0	4	28	277	70	17	21	18	21	14	111	141	31	182	0	0	0	0	263	0	24745	30	24640	15	0	0	0	0	0	0	0	0	90	20
0	4	68	711	120	42	42	38	43	41	114	32	35	196	792	0	0	0	2065	0	24746	30	24642	5	24648	5	0	0	0	0	0	0	90	20
0	4	23	264	40	15	18	18	13	12	31	33	85	91	0	0	0	0	195	0	24747	30	24645	10	0	0	0	0	0	0	0	2	90	20
0	4	38	425	70	20	27	26	20	19	32	34	192	0	0	0	0	0	678	0	24748	30	24649	5	24640	5	0	0	0	0	0	2	90	20
0	4	43	448	90	24	32	28	27	25	156	32	34	802	0	0	0	0	935	0	24749	30	24637	10	0	0	0	0	0	0	0	2	90	20
0	4	50	347	0	52	79	31	35	27	0	0	0	0	0	0	0	0	0	0	24750	0	0	0	0	0	0	0	0	0	0	2	90	20
0	4	41	469	140	22	30	26	23	20	65	101	100	93	72	74	816	0	792	0	24751	30	24646	10	0	0	0	0	0	0	0	1	90	20
0	4	47	468	180	23	33	31	30	31	198	87	91	12	14	0	0	0	1007	0	24752	30	24645	5	24639	5	0	0	0	0	0	1	90	20
0	4	60	700	200	34	49	36	34	41	157	58	61	0	0	0	0	0	1379	0	24753	25	24639	10	24637	5	0	0	0	0	0	1	90	20
0	4	90	553	0	92	99	55	60	48	0	0	0	0	0	0	0	0	0	0	24754	0	0	0	0	0	0	0	0	0	0	1	90	20
0	4	9	142	15	6	7	6	7	5	30	0	0	0	0	0	0	0	28	0	24709	40	24637	5	0	0	0	0	0	0	0	1	70	10
0	1	0	0	0	0	0	0	0	0	0	0	0	0	0	0	0	0	0	0	0	0	0	0	0	0	0	0	0	0	0	0	0	0
0	1	0	0	0	0	0	0	0	0	0	0	0	0	0	0	0	0	0	0	0	0	0	0	0	0	0	0	0	0	0	0	0	0
0	1	0	0	0	0	0	0	0	0	0	0	0	0	0	0	0	0	0	0	0	0	0	0	0	0	0	0	0	0	0	0	0	0
0	1	0	0	0	0	0	0	0	0	0	0	0	0	0	0	0	0	0	0	0	0	0	0	0	0	0	0	0	0	0	0	0	0
0	5	7	282	15	9	2	8	5	3	125	0	0	0	0	0	0	0	35	0	24755	25	24637	5	0	0	0	0	0	0	0	1	80	25
0	5	21	302	20	19	11	19	9	12	127	180	0	0	0	0	0	0	202	0	24756	30	24637	15	0	0	0	0	0	0	0	1	80	20
0	5	25	321	45	20	17	21	15	12	127	57	60	0	0	0	0	0	276	0	24757	30	24645	5	24649	5	0	0	0	0	0	1	90	20
0	5	68	444	240	39	16	99	38	37	80	206	0	0	0	0	0	0	2149	0	24758	35	24648	10	0	0	0	0	0	0	0	1	90	20
0	5	29	323	40	22	17	22	18	18	141	143	21	818	0	0	0	0	415	0	24759	30	24640	15	0	0	0	0	0	0	0	2	90	20
0	5	39	436	80	25	27	27	24	20	142	41	44	180	181	182	819	0	719	0	24760	30	24646	10	0	0	0	0	0	0	0	2	90	20
0	5	57	630	150	40	32	33	34	33	142	144	42	45	187	205	0	0	1414	0	24761	25	24642	10	24641	5	0	0	0	0	0	2	90	20
0	5	60	399	0	85	47	37	41	33	0	0	0	0	0	0	0	0	0	0	24762	0	0	0	0	0	0	0	0	0	0	2	90	20
0	5	47	506	120	25	35	33	28	27	42	44	185	186	0	0	0	0	1073	0	24763	30	24646	10	0	0	0	0	0	0	0	2	90	30
0	5	58	880	150	39	39	40	28	30	32	35	185	186	802	0	0	0	1475	0	24764	25	24642	15	0	0	0	0	0	0	0	2	90	30
0	5	68	1136	180	42	47	50	36	44	42	45	185	186	187	805	819	0	2201	0	24765	30	24644	10	0	0	0	0	0	0	0	2	90	30
0	5	68	300	0	70	53	84	46	37	0	0	0	0	0	0	0	0	0	0	24766	0	0	0	0	0	0	0	0	0	0	2	90	30
0	5	16	199	50	10	11	10	12	8	56	59	0	0	0	0	0	0	59	0	24710	40	24649	5	0	0	0	0	0	0	0	1	90	20
0	1	0	0	0	0	0	0	0	0	0	0	0	0	0	0	0	0	0	0	0	0	0	0	0	0	0	0	0	0	0	0	0	0
0	1	0	0	0	0	0	0	0	0	0	0	0	0	0	0	0	0	0	0	0	0	0	0	0	0	0	0	0	0	0	0	0	0
0	1	0	0	0	0	0	0	0	0	0	0	0	0	0	0	0	0	0	0	0	0	0	0	0	0	0	0	0	0	0	0	0	0
0	1	0	0	0	0	0	0	0	0	0	0	0	0	0	0	0	0	0	0	0	0	0	0	0	0	0	0	0	0	0	0	0	0
0	6	6	110	20	7	7	5	3	3	20	0	0	0	0	0	0	0	30	0	24767	20	24645	10	0	0	0	0	0	0	0	1	80	20
0	6	23	267	40	19	18	17	14	8	64	141	128	71	0	0	0	0	208	0	24768	30	24637	10	24640	5	0	0	0	0	0	1	90	20
0	6	37	409	80	24	24	23	21	17	141	143	41	44	0	0	0	0	661	0	24769	30	24637	10	0	0	0	0	0	0	0	1	90	20
0	6	52	610	125	33	33	31	31	29	144	58	61	0	0	0	0	0	1222	0	24770	30	24646	10	0	0	0	0	0	0	0	1	90	20
0	6	12	220	25	8	4	12	6	13	155	85	0	0	0	0	0	0	70	0	24771	35	24649	10	0	0	0	0	0	0	0	1	80	20
0	6	28	288	95	20	16	20	20	15	160	57	59	216	0	0	0	0	382	0	24772	25	24649	10	24637	10	0	0	0	0	0	1	80	20
0	6	53	600	120	30	37	40	25	29	161	22	25	0	0	0	0	0	1264	0	24773	30	24645	5	24642	5	0	0	0	0	0	1	80	10
0	6	25	25	0	25	25	25	25	25	0	0	0	0	0	0	0	0	0	0	24774	0	0	0	0	0	0	0	0	0	0	1	90	10
0	6	36	400	80	19	26	25	20	16	22	24	181	191	0	0	0	0	646	0	24775	35	24640	10	0	0	0	0	0	0	0	0	90	20
0	6	58	800	120	32	44	34	35	36	12	15	185	195	798	0	0	0	1331	0	24776	30	24646	5	24645	5	0	0	0	0	0	0	90	20
0	6	67	855	150	36	51	40	40	41	32	35	187	197	803	0	0	0	2011	0	24777	30	24641	10	24645	5	0	0	0	0	0	0	90	20
0	6	25	25	0	25	25	25	25	25	0	0	0	0	0	0	0	0	0	0	24778	0	0	0	0	0	0	0	0	0	0	0	90	20
0	6	23	252	50	13	17	14	12	11	41	43	191	0	0	0	0	0	178	0	24711	40	24649	5	0	0	0	0	0	0	0	1	90	20
0	1	0	0	0	0	0	0	0	0	0	0	0	0	0	0	0	0	0	0	0	0	0	0	0	0	0	0	0	0	0	0	0	0
0	1	0	0	0	0	0	0	0	0	0	0	0	0	0	0	0	0	0	0	0	0	0	0	0	0	0	0	0	0	0	0	0	0
0	1	0	0	0	0	0	0	0	0	0	0	0	0	0	0	0	0	0	0	0	0	0	0	0	0	0	0	0	0	0	0	0	0
0	1	0	0	0	0	0	0	0	0	0	0	0	0	0	0	0	0	0	0	0	0	0	0	0	0	0	0	0	0	0	0	0	0
0	7	5	101	15	5	6	4	4	3	155	30	0	0	0	0	0	0	27	0	24779	35	24649	10	0	0	0	0	0	0	0	2	70	20
0	7	20	227	25	12	14	13	14	14	155	140	87	0	0	0	0	0	126	0	24780	35	24645	10	0	0	0	0	0	0	0	2	80	20
0	7	26	293	40	14	20	16	15	20	156	140	91	101	0	0	0	0	289	0	24781	30	24637	15	0	0	0	0	0	0	0	2	90	20
0	7	55	610	60	30	34	30	32	36	148	87	180	181	812	813	0	0	1239	0	24782	25	24639	10	24640	5	0	0	0	0	0	2	90	20
0	7	24	276	100	16	20	17	16	10	87	101	196	11	13	0	0	0	215	0	24783	20	24649	10	24640	10	0	0	0	0	0	1	90	20
0	7	57	600	110	30	30	34	36	32	87	91	102	12	0	0	0	0	1342	0	24784	25	24639	10	24641	5	0	0	0	0	0	1	90	20
0	7	65	879	120	38	43	37	39	45	87	90	12	15	0	0	0	0	1887	0	24785	35	24644	10	0	0	0	0	0	0	0	1	90	20
0	7	75	476	0	77	80	46	51	40	0	0	0	0	0	0	0	0	0	0	24786	0	0	0	0	0	0	0	0	0	0	1	90	20
0	7	14	223	15	13	10	10	10	6	103	155	139	0	0	0	0	0	90	0	24787	30	24649	15	0	0	0	0	0	0	0	2	70	20
0	7	24	245	50	15	19	18	15	12	103	156	143	21	23	0	0	0	238	0	24788	30	24637	10	24640	5	0	0	0	0	0	2	90	20
0	7	64	753	120	42	37	40	37	43	145	15	87	88	796	813	0	0	1825	0	24789	30	24641	10	24637	5	0	0	0	0	0	2	90	20
0	7	69	445	0	71	85	43	47	37	0	0	0	0	0	0	0	0	0	0	24790	0	0	0	0	0	0	0	0	0	0	2	90	20
0	7	31	317	40	18	19	19	21	18	103	180	181	182	0	0	0	0	280	0	24712	35	24649	10	0	0	0	0	0	0	0	1	90	20
0	1	0	0	0	0	0	0	0	0	0	0	0	0	0	0	0	0	0	0	0	0	0	0	0	0	0	0	0	0	0	0	0	0
0	1	0	0	0	0	0	0	0	0	0	0	0	0	0	0	0	0	0	0	0	0	0	0	0	0	0	0	0	0	0	0	0	0
0	1	0	0	0	0	0	0	0	0	0	0	0	0	0	0	0	0	0	0	0	0	0	0	0	0	0	0	0	0	0	0	0	0
0	1	0	0	0	0	0	0	0	0	0	0	0	0	0	0	0	0	0	0	0	0	0	0	0	0	0	0	0	0	0	0	0	0
0	8	15	283	20	17	3	16	11	7	0	0	0	0	0	0	0	0	121	0	24791	0	0	0	0	0	0	0	0	0	0	1	90	20
0	8	26	270	40	21	12	19	17	16	111	126	113	180	0	0	0	0	305	0	24792	30	24640	10	0	0	0	0	0	0	0	1	90	20
0	8	41	500	60	30	21	28	27	16	130	12	190	0	0	0	0	0	806	0	24793	25	24646	10	24637	5	0	0	0	0	0	1	90	20
0	8	56	590	120	38	35	33	34	28	130	22	25	818	0	0	0	0	1399	0	24794	30	24642	15	0	0	0	0	0	0	0	1	90	20
0	8	34	379	80	23	17	23	20	26	127	128	21	24	818	0	0	0	381	0	24795	35	24640	5	24637	5	0	0	0	0	0	1	80	20
0	8	40	458	100	29	17	27	25	21	142	144	185	0	0	0	0	0	728	0	24796	30	24637	10	24646	5	0	0	0	0	0	2	80	20
0	8	64	775	150	52	30	41	39	40	116	114	185	205	792	0	0	0	1797	0	24797	25	24641	5	24644	5	0	0	0	0	0	0	80	20
0	8	66	430	0	80	52	41	45	36	0	0	0	0	0	0	0	0	0	0	24798	0	0	0	0	0	0	0	0	0	0	0	80	20
0	8	42	598	40	31	22	30	28	26	142	148	141	180	0	0	0	0	988	0	24799	30	24639	5	0	0	0	0	0	0	0	2	90	30
0	8	54	640	120	35	35	34	31	30	142	144	12	15	206	798	0	0	1341	0	24800	25	24642	15	24646	5	0	0	0	0	0	2	90	30
0	8	73	1232	150	63	31	51	45	37	146	148	196	205	796	0	0	0	2445	0	24801	25	24641	10	24648	10	0	0	0	0	0	2	90	30
0	8	96	500	0	77	77	77	77	77	0	0	0	0	0	0	0	0	0	0	24802	0	0	0	0	0	0	0	0	0	0	2	90	30
0	8	36	390	50	23	19	23	22	17	126	128	0	0	0	0	0	0	628	0	24713	35	24649	5	24645	5	0	0	0	0	0	1	90	20
0	1	0	0	0	0	0	0	0	0	0	0	0	0	0	0	0	0	0	0	0	0	0	0	0	0	0	0	0	0	0	0	0	0
0	1	0	0	0	0	0	0	0	0	0	0	0	0	0	0	0	0	0	0	0	0	0	0	0	0	0	0	0	0	0	0	0	0
0	1	0	0	0	0	0	0	0	0	0	0	0	0	0	0	0	0	0	0	0	0	0	0	0	0	0	0	0	0	0	0	0	0
0	1	0	0	0	0	0	0	0	0	0	0	0	0	0	0	0	0	0	0	0	0	0	0	0	0	0	0	0	0	0	0	0	0
0	9	31	322	80	35	6	22	19	17	111	57	60	792	0	0	0	0	307	0	24803	35	24640	10	0	0	0	0	0	0	0	0	90	40
0	9	48	479	100	35	25	32	31	28	112	114	196	0	0	0	0	0	1083	0	24804	25	24646	5	24642	5	0	0	0	0	0	0	90	40
0	9	61	600	110	47	34	39	35	38	62	112	117	42	0	0	0	0	1525	0	24805	25	24642	10	24649	5	0	0	0	0	0	0	90	40
0	9	64	1002	120	46	40	45	36	39	118	22	25	186	792	801	818	0	1931	0	24806	30	24641	10	24642	5	0	0	0	0	0	0	90	40
0	9	10	170	50	6	11	7	7	6	10	13	20	23	0	0	0	0	35	0	24807	35	24645	5	24637	5	0	0	0	0	0	1	70	20
0	9	17	221	50	10	14	14	9	11	41	31	43	33	0	0	0	0	97	0	24808	35	24637	5	24645	5	0	0	0	0	0	1	80	20
0	9	17	177	0	19	14	12	14	10	0	0	0	0	0	0	0	0	0	0	24809	0	0	0	0	0	0	0	0	0	0	1	90	20
0	9	65	721	190	35	49	38	37	40	62	76	61	75	0	0	0	0	1833	0	24810	30	24646	10	24639	5	0	0	0	0	0	1	90	10
0	9	46	483	80	30	31	30	29	25	121	42	32	44	34	819	0	0	1022	0	24811	30	24639	10	0	0	0	0	0	0	0	0	90	30
0	9	63	550	120	46	46	56	33	33	118	117	25	45	792	819	818	0	1711	0	24812	30	24642	10	0	0	0	0	0	0	0	0	90	30
0	9	74	1376	180	75	75	99	37	37	117	42	32	45	35	792	805	803	2722	0	24813	25	24641	10	24648	10	0	0	0	0	0	0	90	10
0	9	77	300	0	79	60	99	52	41	0	0	0	0	0	0	0	0	0	0	24814	0	0	0	0	0	0	0	0	0	0	0	90	10
0	9	64	601	120	39	41	34	36	42	42	195	196	0	0	0	0	0	2102	0	24714	35	24645	5	24641	5	0	0	0	0	0	1	90	10
0	1	0	0	0	0	0	0	0	0	0	0	0	0	0	0	0	0	0	0	0	0	0	0	0	0	0	0	0	0	0	0	0	0
0	1	0	0	0	0	0	0	0	0	0	0	0	0	0	0	0	0	0	0	0	0	0	0	0	0	0	0	0	0	0	0	0	0
0	1	0	0	0	0	0	0	0	0	0	0	0	0	0	0	0	0	0	0	0	0	0	0	0	0	0	0	0	0	0	0	0	0
0	1	0	0	0	0	0	0	0	0	0	0	0	0	0	0	0	0	0	0	0	0	0	0	0	0	0	0	0	0	0	0	0	0
0	10	11	192	40	8	10	8	10	4	110	10	13	0	0	0	0	0	50	0	24815	40	24637	5	0	0	0	0	0	0	0	0	80	20
0	10	16	214	50	11	13	11	14	6	11	13	0	0	0	0	0	0	77	0	24816	35	24637	10	0	0	0	0	0	0	0	0	90	20
0	10	32	329	80	17	24	20	22	20	21	24	818	0	0	0	0	0	328	0	24817	35	24637	10	0	0	0	0	0	0	0	0	90	20
0	10	64	711	120	37	44	35	40	40	12	15	93	94	0	0	0	0	1739	0	24818	35	24640	5	24642	5	0	0	0	0	0	0	90	20
0	10	13	231	30	5	16	12	9	10	64	70	0	0	0	0	0	0	78	0	24819	35	24645	10	0	0	0	0	0	0	0	1	70	20
0	10	22	278	40	7	20	18	13	15	64	71	0	0	0	0	0	0	176	0	24820	35	24640	10	0	0	0	0	0	0	0	1	80	20
0	10	38	382	140	19	31	23	24	24	100	93	31	816	0	0	0	0	437	0	24821	30	24640	10	24646	5	0	0	0	0	0	1	80	30
0	10	36	275	0	38	57	23	26	20	0	0	0	0	0	0	0	0	0	0	24822	0	0	0	0	0	0	0	0	0	0	1	80	30
0	10	42	437	120	20	31	27	28	27	12	72	14	74	195	196	0	0	918	0	24823	30	24646	10	0	0	0	0	0	0	0	1	80	20
0	10	59	650	140	30	45	35	37	37	198	72	75	0	0	0	0	0	1341	0	24824	30	24642	10	0	0	0	0	0	0	0	1	80	20
0	10	69	1002	200	37	47	40	41	49	65	72	75	198	0	0	0	0	2185	0	24825	30	24639	5	24642	5	0	0	0	0	0	1	90	20
0	10	76	481	0	78	90	47	51	41	0	0	0	0	0	0	0	0	0	0	24826	0	0	0	0	0	0	0	0	0	0	1	80	20
0	10	58	550	120	35	35	33	35	40	42	45	103	196	0	0	0	0	1203	0	24715	30	24642	5	24649	5	0	0	0	0	0	1	90	10
0	1	0	0	0	0	0	0	0	0	0	0	0	0	0	0	0	0	0	0	0	0	0	0	0	0	0	0	0	0	0	0	0	0
0	1	0	0	0	0	0	0	0	0	0	0	0	0	0	0	0	0	0	0	0	0	0	0	0	0	0	0	0	0	0	0	0	0
0	1	0	0	0	0	0	0	0	0	0	0	0	0	0	0	0	0	0	0	0	0	0	0	0	0	0	0	0	0	0	0	0	0
0	1	0	0	0	0	0	0	0	0	0	0	0	0	0	0	0	0	0	0	0	0	0	0	0	0	0	0	0	0	0	0	0	0
0	11	16	202	66	12	12	14	7	10	64	125	21	85	160	185	0	0	82	0	24827	35	24645	5	24649	5	0	0	0	0	0	1	80	20
0	11	63	500	70	47	30	40	37	42	132	127	115	144	210	211	0	0	1535	0	24828	25	24646	10	24639	5	0	0	0	0	0	1	90	30
0	11	67	435	0	69	52	41	46	36	0	0	0	0	0	0	0	0	0	0	24829	0	0	0	0	0	0	0	0	0	0	1	90	10
0	11	70	1093	80	44	43	43	40	44	116	131	146	792	794	796	0	0	2211	0	24830	25	24644	10	24641	10	0	0	0	0	0	1	90	30
0	11	33	338	60	20	17	21	21	27	85	87	89	91	93	95	0	0	335	0	24831	30	24645	10	24640	5	0	0	0	0	0	1	80	30
0	11	60	660	140	40	30	40	37	50	100	93	90	95	126	114	0	0	1480	0	24832	25	24646	10	24645	5	0	0	0	0	0	1	90	30
0	11	65	904	77	39	41	42	37	99	65	51	72	58	821	822	0	0	1899	0	24833	35	24644	5	24648	5	0	0	0	0	0	1	90	30
0	11	66	430	0	68	80	41	30	45	0	0	0	0	0	0	0	0	0	0	24834	0	0	0	0	0	0	0	0	0	0	1	90	10
0	11	45	445	120	25	33	28	32	27	50	58	60	215	0	0	0	0	958	0	24835	25	24640	10	24646	5	0	0	0	0	0	0	90	30
0	11	61	700	140	38	46	30	42	38	32	35	210	211	0	0	0	0	1400	0	24836	30	24641	5	24642	5	0	0	0	0	0	0	90	30
0	11	67	778	160	42	45	38	43	39	22	25	79	185	800	0	0	0	1931	0	24837	25	24644	10	24641	10	0	0	0	0	0	0	90	30
0	11	71	456	0	73	55	44	48	38	0	0	0	0	0	0	0	0	0	0	24838	0	0	0	0	0	0	0	0	0	0	0	90	30
0	11	52	600	120	30	34	29	30	33	195	196	197	0	0	0	0	0	1121	0	24716	30	24642	5	24649	5	0	0	0	0	0	1	90	20
0	1	0	0	0	0	0	0	0	0	0	0	0	0	0	0	0	0	0	0	0	0	0	0	0	0	0	0	0	0	0	0	0	0
0	1	0	0	0	0	0	0	0	0	0	0	0	0	0	0	0	0	0	0	0	0	0	0	0	0	0	0	0	0	0	0	0	0
0	1	0	0	0	0	0	0	0	0	0	0	0	0	0	0	0	0	0	0	0	0	0	0	0	0	0	0	0	0	0	0	0	0
0	1	0	0	0	0	0	0	0	0	0	0	0	0	0	0	0	0	0	0	0	0	0	0	0	0	0	0	0	0	0	0	0	0
0	12	45	467	90	33	22	29	30	28	112	120	114	205	792	0	0	0	738	0	24839	25	24639	10	24646	5	0	0	0	0	0	0	90	30
0	12	52	630	150	38	25	32	33	30	112	119	114	205	792	0	0	0	1243	0	24840	30	24645	5	24639	5	0	0	0	0	0	0	90	30
0	12	66	900	180	48	41	46	41	38	116	117	75	188	0	0	0	0	2001	0	24841	30	24639	10	24642	5	0	0	0	0	0	0	90	30
0	12	95	579	0	99	74	58	63	51	0	0	0	0	0	0	0	0	0	0	24842	0	0	0	0	0	0	0	0	0	0	0	90	30
0	12	70	450	0	89	55	43	48	38	0	0	0	0	0	0	0	0	0	0	24843	0	0	0	0	0	0	0	0	0	0	1	90	10
0	12	19	273	40	18	8	16	11	11	126	180	0	0	0	0	0	0	144	0	24844	35	24645	5	24637	5	0	0	0	0	0	1	95	60
0	12	35	560	50	28	18	25	21	2	127	128	0	0	0	0	0	0	521	0	24845	35	24640	5	24637	5	0	0	0	0	0	1	95	30
0	12	36	275	0	76	29	23	26	20	0	0	0	0	0	0	0	0	0	0	24846	0	0	0	0	0	0	0	0	0	0	1	90	10
0	12	12	281	40	16	6	11	10	5	133	125	180	0	0	0	0	0	80	0	24847	30	24649	10	24637	5	0	0	0	0	0	1	80	20
0	12	23	285	50	18	10	16	15	17	126	125	128	41	43	0	0	0	222	0	24848	30	24640	15	0	0	0	0	0	0	0	1	90	20
0	12	54	650	75	36	31	32	34	31	127	72	86	180	0	0	0	0	1310	0	24849	25	24642	10	24637	5	0	0	0	0	0	1	90	20
0	12	76	481	0	90	59	47	51	41	0	0	0	0	0	0	0	0	0	0	24850	0	0	0	0	0	0	0	0	0	0	1	90	20
0	12	42	420	40	29	22	26	27	26	141	180	0	0	0	0	0	0	885	0	24717	35	24649	5	0	0	0	0	0	0	0	1	90	30
0	1	0	0	0	0	0	0	0	0	0	0	0	0	0	0	0	0	0	0	0	0	0	0	0	0	0	0	0	0	0	0	0	0
0	1	0	0	0	0	0	0	0	0	0	0	0	0	0	0	0	0	0	0	0	0	0	0	0	0	0	0	0	0	0	0	0	0
0	1	0	0	0	0	0	0	0	0	0	0	0	0	0	0	0	0	0	0	0	0	0	0	0	0	0	0	0	0	0	0	0	0
0	1	0	0	0	0	0	0	0	0	0	0	0	0	0	0	0	0	0	0	0	0	0	0	0	0	0	0	0	0	0	0	0	0
0	13	37	380	40	29	29	24	20	16	129	11	71	0	0	0	0	0	463	0	24851	30	24640	15	0	0	0	0	0	0	0	1	90	20
0	13	49	373	50	37	24	33	31	29	127	129	785	0	0	0	0	0	1119	0	24852	25	24639	10	0	0	0	0	0	0	0	1	90	20
0	13	63	704	120	42	42	39	33	39	127	130	12	15	0	0	0	0	1644	0	24853	30	24642	5	0	0	0	0	0	0	0	1	90	20
0	13	69	1174	180	49	43	42	35	35	131	188	205	781	0	0	0	0	2144	0	24854	30	24641	5	24648	5	0	0	0	0	0	1	90	20
0	13	39	410	75	32	20	26	24	22	127	129	95	196	205	0	0	0	504	0	24855	35	24646	10	0	0	0	0	0	0	0	1	90	20
0	13	62	954	50	54	37	33	35	34	127	115	130	103	0	0	0	0	1602	0	24856	30	24642	10	0	0	0	0	0	0	0	1	90	20
0	13	70	2398	250	38	77	38	39	42	80	12	22	42	32	206	738	0	2313	0	24857	30	24648	10	0	0	0	0	0	0	0	1	90	20
0	13	55	373	0	80	43	34	38	30	0	0	0	0	0	0	0	0	0	0	24858	0	0	0	0	0	0	0	0	0	0	1	90	20
0	13	50	400	80	28	34	33	33	29	14	24	44	34	798	800	804	802	1159	0	24859	25	24642	10	0	0	0	0	0	0	0	1	90	30
0	13	64	712	70	40	49	36	37	37	12	22	42	32	798	800	804	802	1801	0	24860	25	24641	10	0	0	0	0	0	0	0	1	90	30
0	13	71	924	120	44	51	41	42	45	15	25	45	35	799	801	805	803	2379	0	24861	25	24644	10	24648	10	0	0	0	0	0	1	90	30
0	13	55	373	0	80	43	34	38	30	0	0	0	0	0	0	0	0	0	0	24862	0	0	0	0	0	0	0	0	0	0	1	90	30
0	13	67	631	75	35	32	36	39	61	167	58	0	0	0	0	0	0	1653	0	24718	35	24649	5	24644	5	0	0	0	0	0	1	90	30
0	1	0	0	0	0	0	0	0	0	0	0	0	0	0	0	0	0	0	0	0	0	0	0	0	0	0	0	0	0	0	0	0	0
0	1	0	0	0	0	0	0	0	0	0	0	0	0	0	0	0	0	0	0	0	0	0	0	0	0	0	0	0	0	0	0	0	0
0	1	0	0	0	0	0	0	0	0	0	0	0	0	0	0	0	0	0	0	0	0	0	0	0	0	0	0	0	0	0	0	0	0
0	1	0	0	0	0	0	0	0	0	0	0	0	0	0	0	0	0	0	0	0	0	0	0	0	0	0	0	0	0	0	0	0	0
512	1	7	250	30	1	1	3	99	99	0	0	0	0	0	0	0	0	294	0	24618	100	0	0	0	0	0	0	0	0	0	1	90	10
512	1	12	336	50	1	1	10	99	99	0	0	0	0	0	0	0	0	842	0	24619	100	0	0	0	0	0	0	0	0	0	1	90	10
512	1	27	500	70	1	1	20	99	99	0	0	0	0	0	0	0	0	3831	0	24620	100	0	0	0	0	0	0	0	0	0	1	90	10
512	1	42	700	100	1	1	25	99	99	182	215	0	0	0	0	0	0	8220	0	24621	100	0	0	0	0	0	0	0	0	0	1	90	10
512	1	58	290	130	1	1	35	99	99	0	0	0	0	0	0	0	0	14027	0	24622	100	0	0	0	0	0	0	0	0	0	1	90	10
512	1	70	342	200	1	1	49	99	99	0	0	0	0	0	0	0	0	18443	0	24623	100	0	0	0	0	0	0	0	0	0	1	90	10
512	1	5	100	0	1	1	1	99	99	0	0	0	0	0	0	0	0	500	0	0	0	0	0	0	0	0	0	0	0	0	1	90	10
512	1	19	420	60	1	1	15	99	99	0	0	0	0	0	0	0	0	2011	0	24619	100	0	0	0	0	0	0	0	0	0	1	90	10
512	1	35	600	80	1	1	25	99	99	182	0	0	0	0	0	0	0	6059	0	24620	100	0	0	0	0	0	0	0	0	0	1	90	10
512	1	49	620	120	1	1	30	99	99	182	216	0	0	0	0	0	0	10567	0	24621	100	0	0	0	0	0	0	0	0	0	1	90	10
512	1	64	380	150	1	1	15	99	99	0	0	0	0	0	0	0	0	16207	0	24622	100	0	0	0	0	0	0	0	0	0	1	90	10
0	1	0	0	0	0	0	0	0	0	0	0	0	0	0	0	0	0	0	0	0	0	0	0	0	0	0	0	0	0	0	0	0	0
0	1	0	0	0	0	0	0	0	0	0	0	0	0	0	0	0	0	0	0	0	0	0	0	0	0	0	0	0	0	0	0	0	0
0	1	0	0	0	0	0	0	0	0	0	0	0	0	0	0	0	0	0	0	0	0	0	0	0	0	0	0	0	0	0	0	0	0
0	1	0	0	0	0	0	0	0	0	0	0	0	0	0	0	0	0	0	0	0	0	0	0	0	0	0	0	0	0	0	0	0	0
259	14	90	8000	999	99	99	66	99	66	866	739	834	820	815	822	821	0	175820	0	24599	100	0	0	0	0	0	0	0	0	0	2	100	40
32	2	1	75	999	1	1	1	1	1	739	0	0	0	0	0	0	0	22	0	0	0	0	0	0	0	0	0	0	0	0	1	60	10
256	10	5	218	300	4	5	5	5	3	20	23	110	0	0	0	0	0	120	0	0	0	0	0	0	0	0	0	0	0	0	0	90	10
256	8	7	390	300	11	4	8	5	4	125	0	0	0	0	0	0	0	711	0	0	0	0	0	0	0	0	0	0	0	0	1	90	15
256	2	5	140	120	4	6	5	4	3	10	155	89	0	0	0	0	0	0	0	0	0	0	0	0	0	0	0	0	0	0	1	90	10
256	8	9	422	300	12	9	10	7	4	126	33	180	30	125	0	0	0	1260	0	24609	100	0	0	0	0	0	0	0	0	0	1	90	20
32768	12	14	870	70	14	5	12	10	17	126	125	128	211	0	0	0	0	281	0	24844	80	24637	20	0	0	0	0	0	0	0	1	90	20
32768	12	16	940	100	17	12	13	12	11	126	128	41	43	819	0	0	0	510	0	24848	80	24637	20	0	0	0	0	0	0	0	1	90	20
256	10	12	677	999	11	13	10	12	6	11	13	110	798	738	792	0	0	1970	0	0	0	0	0	0	0	0	0	0	0	0	0	90	20
256	4	11	384	999	7	9	9	10	3	40	43	0	0	0	0	0	0	0	0	0	0	0	0	0	0	0	0	0	0	0	0	90	20
256	4	17	1090	999	10	20	16	12	9	798	800	802	804	739	0	0	0	4500	0	24637	100	0	0	0	0	0	0	0	0	0	2	90	20
256	6	18	1032	999	10	10	9	5	7	128	57	60	739	0	0	0	0	6468	0	0	0	0	0	0	0	0	0	0	0	0	1	90	10
256	7	17	240	999	6	9	10	7	8	140	155	95	91	0	0	0	0	0	0	0	0	0	0	0	0	0	0	0	0	0	2	90	20
256	5	23	1400	999	25	18	24	17	8	144	739	797	0	0	0	0	0	7735	0	24651	100	0	0	0	0	0	0	0	0	0	2	90	30
32768	7	24	1000	240	12	21	19	18	20	87	88	101	196	11	14	798	0	1132	0	24783	50	24651	50	0	0	0	0	0	0	0	1	90	20
32768	8	21	920	180	24	4	20	16	18	126	128	180	210	794	885	0	0	838	0	24791	50	24640	50	0	0	0	0	0	0	0	1	90	40
0	3	9	100	100	5	5	5	5	5	56	59	180	0	0	0	0	0	20	0	0	0	0	0	0	0	0	0	0	0	0	1	90	40
0	2	9	100	100	5	5	5	5	5	20	23	91	0	0	0	0	0	20	0	0	0	0	0	0	0	0	0	0	0	0	1	90	40
0	9	9	100	100	5	5	5	5	5	10	13	20	23	0	0	0	0	20	0	0	0	0	0	0	0	0	0	0	0	0	1	90	40
0	2	9	100	100	5	5	5	5	5	40	43	85	0	0	0	0	0	20	0	0	0	0	0	0	0	0	0	0	0	0	0	90	40
32	2	2	37	100	2	3	2	2	2	20	739	0	0	0	0	0	0	14	0	0	0	0	0	0	0	0	0	0	0	0	1	60	5
32	3	2	72	100	2	5	3	2	3	10	191	739	0	0	0	0	0	22	0	0	0	0	0	0	0	0	0	0	0	0	1	60	5
32	3	2	70	100	3	2	4	2	2	10	739	0	0	0	0	0	0	29	0	24708	100	0	0	0	0	0	0	0	0	0	1	60	5
256	2	14	640	999	8	15	11	11	7	40	41	43	30	31	33	0	0	1200	0	24649	100	0	0	0	0	0	0	0	0	0	1	90	10
256	2	13	320	999	6	11	10	7	14	10	812	0	0	0	0	0	0	0	0	0	0	0	0	0	0	0	0	0	0	0	0	90	10
256	4	20	950	999	19	20	15	12	12	739	815	813	814	0	0	0	0	7000	0	0	0	0	0	0	0	0	0	0	0	0	1	90	30
256	12	19	450	999	26	8	18	16	3	739	794	0	0	0	0	0	0	0	0	0	0	0	0	0	0	0	0	0	0	0	1	90	30
32768	8	28	1250	160	21	19	23	17	20	126	129	21	24	794	818	0	0	1596	0	24795	50	24651	50	0	0	0	0	0	0	0	1	90	30
32768	13	32	2100	150	30	10	10	21	25	127	129	95	205	195	794	0	0	2114	0	24855	50	24651	50	0	0	0	0	0	0	0	1	90	30
256	11	14	690	999	18	10	12	12	2	814	794	90	211	0	0	0	0	2970	0	0	0	0	0	0	0	0	0	0	0	0	1	90	30
256	6	13	370	999	14	12	11	9	2	73	808	796	141	139	0	0	0	0	0	24645	100	0	0	0	0	0	0	0	0	0	1	90	30
289	5	20	250	100	10	10	10	5	10	126	834	0	0	0	0	0	0	0	0	0	0	0	0	0	0	0	0	0	0	0	7	100	70
256	13	32	1454	999	24	11	25	19	5	129	739	794	795	0	0	0	0	17051	0	24660	100	0	0	0	0	0	0	0	0	0	1	90	30
256	3	31	696	999	10	21	19	21	12	56	59	180	181	738	0	0	0	0	0	0	0	0	0	0	0	0	0	0	0	0	1	90	10
256	10	29	1200	999	12	30	24	22	17	799	801	803	805	739	0	0	0	14952	0	0	0	0	0	0	0	0	0	0	0	0	1	90	20
256	9	28	815	999	10	26	21	21	15	799	801	739	0	0	0	0	0	0	0	24670	100	0	0	0	0	0	0	0	0	0	1	90	30
256	9	28	815	999	10	26	21	21	15	803	805	739	0	0	0	0	0	0	0	20513	100	0	0	0	0	0	0	0	0	0	1	90	30
256	11	28	924	999	17	19	20	17	20	792	798	739	0	0	0	0	0	4652	0	0	0	0	0	0	0	0	0	0	0	0	0	90	30
256	7	33	1392	999	19	27	21	24	24	802	800	739	818	0	0	0	0	9075	0	24663	100	0	0	0	0	0	0	0	0	0	2	90	30
256	7	33	1488	999	24	19	24	24	27	796	813	739	0	0	0	0	0	9075	0	0	0	0	0	0	0	0	0	0	0	0	2	90	30
256	2	35	1390	999	15	30	24	22	34	812	820	798	739	0	0	0	0	21000	0	0	0	0	0	0	0	0	0	0	0	0	1	90	30
256	2	33	900	999	15	26	22	25	26	800	180	0	0	0	0	0	0	0	0	24651	100	0	0	0	0	0	0	0	0	0	1	80	20
256	3	37	1530	999	21	28	28	22	44	808	739	816	820	0	0	0	0	25909	0	24671	100	0	0	0	0	0	0	0	0	0	1	90	40
256	3	36	1045	999	18	27	24	24	21	180	181	182	802	100	0	0	0	0	0	0	0	0	0	0	0	0	0	0	0	0	1	90	40
256	6	40	1970	999	25	32	30	26	99	44	819	820	739	753	755	805	0	27272	0	24666	100	0	0	0	0	0	0	0	0	0	1	90	40
32768	5	36	1500	220	26	22	25	24	27	142	129	144	41	44	188	796	819	2525	0	24760	50	24651	50	0	0	0	0	0	0	0	2	90	20
32768	4	40	1670	280	22	39	17	26	50	65	102	100	93	94	72	71	74	3144	0	24751	50	24651	30	24646	20	0	0	0	0	0	1	90	10
32	2	2	80	100	2	3	3	2	2	20	739	0	0	0	0	0	0	110	0	0	0	0	0	0	0	0	0	0	0	0	1	60	5
256	4	42	1105	999	25	22	31	32	24	739	0	0	0	0	0	0	0	15174	0	0	0	0	0	0	0	0	0	0	0	0	2	90	40
256	11	39	1213	999	32	20	26	29	25	739	792	816	0	0	0	0	0	0	0	0	0	0	0	0	0	0	0	0	0	0	0	90	40
256	8	42	1550	999	40	15	88	25	23	796	739	0	0	0	0	0	0	18588	0	24658	100	0	0	0	0	0	0	0	0	0	2	90	40
256	4	40	766	999	23	33	28	28	24	798	0	0	0	0	0	0	0	0	0	0	0	0	0	0	0	0	0	0	0	0	1	90	20
256	2	43	1638	999	22	25	36	30	44	821	739	753	755	0	0	0	0	21460	0	24639	100	0	0	0	0	0	0	0	0	0	0	90	20
256	13	44	2150	999	99	20	31	29	23	739	753	755	0	0	0	0	0	24951	0	24661	100	0	0	0	0	0	0	0	0	0	1	90	60
256	2	42	1550	999	21	32	27	32	33	738	812	814	0	0	0	0	0	0	0	0	0	0	0	0	0	0	0	0	0	0	1	90	20
256	2	42	1550	999	21	32	27	32	33	738	0	0	0	0	0	0	0	0	0	0	0	0	0	0	0	0	0	0	0	0	1	90	20
256	5	47	1995	999	37	45	40	33	30	739	798	800	802	804	0	0	0	34058	0	20515	100	0	0	0	0	0	0	0	0	0	2	90	20
32768	12	44	1897	150	36	24	38	28	26	112	120	114	205	760	792	739	0	3425	0	24839	50	24639	50	0	0	0	0	0	0	0	0	90	40
32768	9	47	1111	240	40	35	99	26	29	121	42	32	44	34	195	804	802	3938	0	24811	50	24652	50	0	0	0	0	0	0	0	0	90	40
256	6	49	1838	999	30	40	35	28	31	804	802	739	0	0	0	0	0	30873	0	24664	100	0	0	0	0	0	0	0	0	0	1	90	30
256	3	47	1225	999	22	30	31	30	29	0	0	0	0	0	0	0	0	0	0	0	0	0	0	0	0	0	0	0	0	0	1	90	30
256	8	50	2066	999	38	27	37	34	15	793	739	0	0	0	0	0	0	34811	0	0	0	0	0	0	0	0	0	0	0	0	1	90	30
256	5	52	1835	999	27	37	35	36	34	805	809	738	755	0	0	0	0	19495	0	24652	100	0	0	0	0	0	0	0	0	0	2	90	30
256	9	54	1578	999	37	32	38	35	34	792	739	0	0	0	0	0	0	31188	0	0	0	0	0	0	0	0	0	0	0	0	0	90	30
256	7	52	951	999	25	30	33	36	39	798	820	738	0	0	0	0	0	0	0	0	0	0	0	0	0	0	0	0	0	0	1	90	30
256	12	55	2600	999	42	29	41	36	39	794	834	739	752	754	0	0	0	49900	0	24667	100	0	0	0	0	0	0	0	0	0	1	90	30
32768	8	51	1771	300	36	54	48	30	25	142	144	12	14	200	206	798	799	4403	0	24800	50	24652	50	0	0	0	0	0	0	0	2	90	50
32768	3	54	1339	160	28	41	38	35	31	223	115	42	44	805	804	819	820	4964	0	24741	50	24652	30	24642	20	0	0	0	0	0	1	90	50
256	6	58	1950	999	39	55	42	38	30	32	35	115	206	182	739	802	803	44559	0	0	0	0	0	0	0	0	0	0	0	0	0	90	30
256	9	59	1200	999	42	42	99	33	37	800	792	818	820	739	0	0	0	52042	0	24662	100	0	0	0	0	0	0	0	0	0	0	90	30
256	9	58	1119	999	45	31	41	39	71	804	819	820	738	0	0	0	0	0	0	0	0	0	0	0	0	0	0	0	0	0	0	90	30
256	8	60	2003	999	51	34	43	41	31	145	146	148	205	185	739	796	0	59186	0	24659	100	0	0	0	0	0	0	0	0	0	2	90	30
256	10	58	1001	999	33	43	37	36	34	12	15	72	75	196	185	798	808	0	0	0	0	0	0	0	0	0	0	0	0	0	1	90	30
256	10	63	2397	999	39	65	43	39	45	58	61	821	755	806	807	739	0	68089	0	20517	100	0	0	0	0	0	0	0	0	0	1	90	30
32768	11	60	1777	280	33	30	42	42	99	65	100	93	90	95	121	114	820	5845	0	24832	50	24652	50	0	0	0	0	0	0	0	1	90	30
32768	13	63	2639	100	51	20	15	45	48	132	127	115	130	103	738	793	795	6470	0	24856	50	24652	35	24641	15	0	0	0	0	0	1	90	30
32	2	4	100	300	2	2	2	2	2	20	0	0	0	0	0	0	0	15	0	0	0	0	0	0	0	0	0	0	0	0	1	90	20
32	3	4	100	300	2	5	4	2	2	10	0	0	0	0	0	0	0	23	0	0	0	0	0	0	0	0	0	0	0	0	1	90	20
0	1	0	0	0	0	0	0	0	0	0	0	0	0	0	0	0	0	0	0	0	0	0	0	0	0	0	0	0	0	0	0	0	0
0	1	0	0	0	0	0	0	0	0	0	0	0	0	0	0	0	0	0	0	0	0	0	0	0	0	0	0	0	0	0	0	0	0
0	2	1	100	30	1	1	1	1	1	10	0	0	0	0	0	0	0	100	0	0	0	0	0	0	0	0	0	0	0	0	0	60	10
256	2	33	1685	999	18	30	26	25	5	739	798	800	802	804	863	0	0	1377	0	24707	100	0	0	0	0	0	0	0	0	0	1	90	20
256	3	25	1080	999	12	32	24	23	10	739	799	801	803	805	0	0	0	0	0	24727	100	0	0	0	0	0	0	0	0	0	1	90	20
256	8	25	1215	999	30	15	25	22	13	141	142	211	205	739	0	0	0	0	0	24801	100	0	0	0	0	0	0	0	0	0	2	90	20
256	7	23	283	999	12	21	20	20	12	11	160	738	0	0	0	0	0	0	0	24780	100	0	0	0	0	0	0	0	0	0	2	90	20
256	2	34	420	999	27	35	29	20	22	739	755	0	0	0	0	0	0	0	0	24727	100	0	0	0	0	0	0	0	0	0	1	90	20
256	3	33	957	999	23	25	24	23	5	739	0	0	0	0	0	0	0	0	0	24733	100	0	0	0	0	0	0	0	0	0	1	90	20
0	5	55	9999	999	30	60	10	35	1	65	72	75	196	809	822	739	0	1556	0	24763	100	0	0	0	0	0	0	0	0	0	2	90	30
0	5	55	9999	999	30	60	10	35	1	51	58	61	185	807	821	739	0	1556	0	24766	100	0	0	0	0	0	0	0	0	0	2	90	30
256	8	34	420	999	32	29	31	21	18	796	818	739	0	0	0	0	0	3214	0	24798	100	0	0	0	0	0	0	0	0	0	2	90	30
256	11	40	1492	999	37	40	38	28	2	798	739	0	0	0	0	0	0	1252	0	24827	100	0	0	0	0	0	0	0	0	0	1	90	50
256	3	39	620	999	28	36	32	24	19	802	0	0	0	0	0	0	0	0	0	24731	100	0	0	0	0	0	0	0	0	0	1	90	30
256	11	40	1492	999	40	37	40	30	2	814	739	0	0	0	0	0	0	1878	0	24828	100	0	0	0	0	0	0	0	0	0	1	90	50
256	3	39	620	999	28	36	32	24	19	800	0	0	0	0	0	0	0	0	0	24737	100	0	0	0	0	0	0	0	0	0	1	90	30
256	11	41	1600	999	45	45	40	30	2	798	814	739	833	0	0	0	0	3131	0	24830	100	0	0	0	0	0	0	0	0	0	1	90	50
256	3	39	620	999	28	36	32	24	19	802	0	0	0	0	0	0	0	0	0	24731	100	0	0	0	0	0	0	0	0	0	1	90	30
256	3	39	620	999	28	36	32	24	19	800	0	0	0	0	0	0	0	0	0	24737	100	0	0	0	0	0	0	0	0	0	1	90	30
256	7	47	1200	999	20	36	30	32	35	799	812	863	0	0	0	0	0	0	0	24784	100	0	0	0	0	0	0	0	0	0	1	90	30
256	6	48	1408	999	23	38	39	29	30	807	739	0	0	0	0	0	0	1615	0	24772	100	0	0	0	0	0	0	0	0	0	1	90	30
256	7	48	1300	999	30	40	35	33	25	803	796	813	820	739	0	0	0	1211	0	24790	100	0	0	0	0	0	0	0	0	0	2	90	30
256	3	48	2215	999	28	45	30	35	27	865	866	739	863	0	0	0	0	4038	0	24742	100	0	0	0	0	0	0	0	0	0	1	90	30
258	13	55	2190	999	43	30	39	36	38	799	794	820	817	739	0	0	0	2073	0	24853	100	0	0	0	0	0	0	0	0	0	1	90	30
256	2	70	3500	999	60	55	50	50	45	795	739	833	863	0	0	0	0	9900	0	24672	100	0	0	0	0	0	0	0	0	0	1	90	30
256	2	69	1980	999	60	28	47	43	40	795	738	0	0	0	0	0	0	0	0	24722	100	0	0	0	0	0	0	0	0	0	1	90	50
256	2	69	2140	999	39	55	46	43	40	866	818	819	738	0	0	0	0	0	0	24721	100	0	0	0	0	0	0	0	0	0	1	90	50
256	2	69	1800	999	30	43	45	46	52	820	815	814	813	738	841	0	0	0	0	24720	100	0	0	0	0	0	0	0	0	0	1	90	30
256	2	69	1470	999	35	37	43	48	38	738	0	0	0	0	0	0	0	0	0	24719	100	0	0	0	0	0	0	0	0	0	1	90	50
256	3	64	1736	999	31	54	45	38	47	820	814	815	817	739	0	0	0	0	0	24754	100	0	0	0	0	0	0	0	0	0	1	90	30
256	12	63	1596	999	55	30	39	42	28	794	739	0	0	0	0	0	0	0	0	24849	100	0	0	0	0	0	0	0	0	0	1	90	30
256	3	70	2700	999	36	60	45	46	48	806	821	739	0	0	0	0	0	4243	0	0	0	0	0	0	0	0	0	0	0	0	1	90	30
256	10	69	1200	999	40	55	47	42	43	822	0	0	0	0	0	0	0	0	0	24820	100	0	0	0	0	0	0	0	0	0	1	90	30
256	5	55	1930	999	42	34	41	38	31	796	739	0	0	0	0	0	0	2594	0	24667	100	0	0	0	0	0	0	0	0	0	2	90	30
256	4	55	1690	999	31	47	37	35	27	865	739	0	0	0	0	0	0	2596	0	24750	100	0	0	0	0	0	0	0	0	0	1	90	30
256	7	64	2075	999	38	55	39	42	37	799	807	812	813	739	753	755	0	3729	0	24786	100	0	0	0	0	0	0	0	0	0	1	90	30
256	13	62	1000	999	34	48	99	40	29	808	833	0	0	0	0	0	0	0	0	24718	100	0	0	0	0	0	0	0	0	0	1	90	30
256	12	40	800	999	65	43	45	40	31	0	0	0	0	0	0	0	0	0	0	0	0	0	0	0	0	0	0	0	0	0	1	90	30
256	9	64	3000	999	46	60	45	43	36	866	863	820	818	819	739	0	0	2175	0	24809	100	0	0	0	0	0	0	0	0	0	1	90	30
256	9	62	800	999	40	50	35	37	28	799	801	818	738	0	0	0	0	2175	0	24807	100	0	0	0	0	0	0	0	0	0	1	90	30
256	9	62	1000	999	40	50	37	35	34	805	803	819	738	0	0	0	0	2175	0	24808	100	0	0	0	0	0	0	0	0	0	1	90	30
256	9	63	1800	999	50	55	41	40	32	807	809	739	0	0	0	0	0	2175	0	24665	100	0	0	0	0	0	0	0	0	0	1	90	30
256	8	80	4320	999	58	55	59	46	41	739	833	797	0	0	0	0	0	3619	0	24668	100	0	0	0	0	0	0	0	0	0	2	90	80
256	12	80	3600	999	64	55	51	48	47	792	834	739	0	0	0	0	0	1357	0	24669	100	0	0	0	0	0	0	0	0	0	0	90	50
256	12	79	2700	999	60	51	48	45	51	792	816	820	822	834	0	0	0	1357	0	24841	100	0	0	0	0	0	0	0	0	0	0	90	50
256	12	79	2620	999	55	62	46	43	45	792	801	805	820	819	818	834	0	1357	0	24840	100	0	0	0	0	0	0	0	0	0	0	90	50
256	12	79	2400	999	58	48	45	50	42	792	834	841	0	0	0	0	0	1357	0	24839	100	0	0	0	0	0	0	0	0	0	0	90	50
256	12	81	5000	999	80	80	65	50	50	786	866	820	833	834	739	863	865	9049	0	24673	100	0	0	0	0	0	0	0	0	0	1	90	80
0	5	56	9999	999	40	45	30	32	2	65	72	75	822	739	200	201	809	0	0	24763	100	0	0	0	0	0	0	0	0	0	2	90	30
0	5	56	9999	999	40	45	30	32	2	51	58	61	821	739	200	201	807	1739	0	24766	100	0	0	0	0	0	0	0	0	0	2	90	30
0	1	0	0	0	0	0	0	0	0	0	0	0	0	0	0	0	0	0	0	0	0	0	0	0	0	0	0	0	0	0	0	0	0
0	1	10	100	999	8	9	10	7	5	10	0	0	0	0	0	0	0	0	0	0	0	0	0	0	0	0	0	0	0	0	1	100	20
263	11	56	2500	999	50	55	45	40	30	739	821	822	753	755	816	0	0	32343	0	0	0	0	0	0	0	0	0	0	0	0	2	100	150
263	10	56	2300	999	46	50	42	45	35	739	753	755	0	0	0	0	0	32343	0	0	0	0	0	0	0	0	0	0	0	0	3	100	60
335	13	63	2800	999	53	65	42	46	30	739	798	799	792	793	815	753	755	0	0	0	0	0	0	0	0	0	0	0	0	0	0	100	60
263	10	80	8000	999	70	75	60	50	55	739	865	753	755	740	0	0	0	132725	0	0	0	0	0	0	0	0	0	0	0	0	3	100	60
263	11	81	8000	999	70	85	60	55	70	739	866	864	755	821	822	863	820	136085	0	0	0	0	0	0	0	0	0	0	0	0	2	100	150
292	12	35	800	999	20	18	25	20	15	739	753	755	0	0	0	0	0	0	0	0	0	0	0	0	0	0	0	0	0	0	1	100	90
0	11	56	2200	999	50	55	45	40	30	739	753	755	0	0	0	0	0	0	0	0	0	0	0	0	0	0	0	0	0	0	2	100	40
0	1	0	0	0	0	0	0	0	0	0	0	0	0	0	0	0	0	0	0	0	0	0	0	0	0	0	0	0	0	0	0	0	0
0	1	0	0	0	0	0	0	0	0	0	0	0	0	0	0	0	0	0	0	0	0	0	0	0	0	0	0	0	0	0	0	0	0
0	1	0	0	0	0	0	0	0	0	0	0	0	0	0	0	0	0	0	0	0	0	0	0	0	0	0	0	0	0	0	0	0	0
0	1	0	0	0	0	0	0	0	0	0	0	0	0	0	0	0	0	0	0	0	0	0	0	0	0	0	0	0	0	0	0	0	0
0	1	0	0	0	0	0	0	0	0	0	0	0	0	0	0	0	0	0	0	0	0	0	0	0	0	0	0	0	0	0	0	0	0
0	1	0	0	0	0	0	0	0	0	0	0	0	0	0	0	0	0	0	0	0	0	0	0	0	0	0	0	0	0	0	0	0	0
0	1	0	0	0	0	0	0	0	0	0	0	0	0	0	0	0	0	0	0	0	0	0	0	0	0	0	0	0	0	0	0	0	0
0	1	0	0	0	0	0	0	0	0	0	0	0	0	0	0	0	0	0	0	0	0	0	0	0	0	0	0	0	0	0	0	0	0
0	1	0	0	0	0	0	0	0	0	0	0	0	0	0	0	0	0	0	0	0	0	0	0	0	0	0	0	0	0	0	0	0	0
0	1	0	0	0	0	0	0	0	0	0	0	0	0	0	0	0	0	0	0	0	0	0	0	0	0	0	0	0	0	0	0	0	0
0	1	0	0	0	0	0	0	0	0	0	0	0	0	0	0	0	0	0	0	0	0	0	0	0	0	0	0	0	0	0	0	0	0
0	1	0	0	0	0	0	0	0	0	0	0	0	0	0	0	0	0	0	0	0	0	0	0	0	0	0	0	0	0	0	0	0	0
259	3	8	100	100	5	5	5	5	5	753	755	739	0	0	0	0	0	0	0	0	0	0	0	0	0	0	0	0	0	0	1	90	40
303	3	11	700	500	8	11	13	11	10	753	755	739	0	0	0	0	0	1500	0	20592	100	0	0	0	0	0	0	0	0	0	1	99	80
259	3	8	100	500	5	5	5	5	5	753	755	739	0	0	0	0	0	0	0	0	0	0	0	0	0	0	0	0	0	0	1	99	60
259	3	8	100	500	5	5	5	5	5	753	755	739	0	0	0	0	0	0	0	0	0	0	0	0	0	0	0	0	0	0	1	99	60
263	4	18	700	999	5	18	15	3	3	753	755	739	0	0	0	0	0	1931	0	20593	100	0	0	0	0	0	0	0	0	0	1	99	99
0	4	18	700	999	1	1	1	1	1	753	755	0	0	0	0	0	0	1	0	0	0	0	0	0	0	0	0	0	0	0	1	99	99
0	4	18	700	999	1	1	1	1	1	753	755	0	0	0	0	0	0	1	0	0	0	0	0	0	0	0	0	0	0	0	1	99	99
263	5	18	700	999	10	5	15	3	3	753	755	739	0	0	0	0	0	1931	0	20594	100	0	0	0	0	0	0	0	0	0	0	99	99
0	5	18	700	999	1	1	1	1	1	753	755	0	0	0	0	0	0	1	0	0	0	0	0	0	0	0	0	0	0	0	0	99	99
0	5	18	700	999	1	1	1	1	1	753	755	0	0	0	0	0	0	1	0	0	0	0	0	0	0	0	0	0	0	0	0	99	99
0	5	18	700	999	1	1	1	1	1	753	755	0	0	0	0	0	0	1	0	0	0	0	0	0	0	0	0	0	0	0	0	99	99
263	6	25	2200	999	20	25	15	10	50	816	739	870	753	755	834	885	0	12605	0	20595	100	0	0	0	0	0	0	0	0	0	1	99	99
263	7	26	4500	999	25	37	8	20	70	739	870	753	755	813	0	0	0	13655	0	20596	100	0	0	0	0	0	0	0	0	0	1	99	99
271	8	34	2100	999	15	5	17	10	15	753	755	739	0	0	0	0	0	11785	0	20597	100	0	0	0	0	0	0	0	0	0	1	99	99
271	9	34	900	999	2	25	12	15	35	753	755	739	0	0	0	0	0	11785	0	20598	100	0	0	0	0	0	0	0	0	0	2	99	99
271	23	34	3000	999	40	30	70	25	35	753	755	739	0	0	0	0	0	0	0	0	0	0	0	0	0	0	0	0	0	0	2	99	60
271	10	41	8000	999	55	90	25	10	30	753	755	739	0	0	0	0	0	34445	0	20599	100	0	0	0	0	0	0	0	0	0	1	99	100
263	11	48	2500	999	5	20	10	15	50	753	755	739	0	0	0	0	0	47385	0	20600	100	0	0	0	0	0	0	0	0	0	1	99	200
263	12	48	5500	999	25	5	42	5	6	753	755	739	0	0	0	0	0	0	0	20601	100	0	0	0	0	0	0	0	0	0	1	99	200
295	13	57	8000	999	27	25	23	20	15	753	755	739	812	817	0	0	0	67040	0	20602	100	0	0	0	0	0	0	0	0	0	1	99	200
259	13	55	800	999	10	60	20	15	15	818	753	755	739	0	0	0	0	0	0	0	0	0	0	0	0	0	0	0	0	0	1	0	0
259	13	55	800	999	10	60	20	15	15	753	755	739	0	0	0	0	0	0	0	0	0	0	0	0	0	0	0	0	0	0	1	0	0
259	13	55	800	999	10	60	20	15	15	753	755	739	0	0	0	0	0	0	0	0	0	0	0	0	0	0	0	0	0	0	1	0	0
259	13	55	800	999	10	60	20	15	15	819	753	755	739	0	0	0	0	0	0	0	0	0	0	0	0	0	0	0	0	0	1	0	0
259	13	55	800	999	10	60	20	15	15	753	755	739	0	0	0	0	0	0	0	0	0	0	0	0	0	0	0	0	0	0	1	0	0
259	13	55	800	999	10	60	20	15	15	753	755	739	0	0	0	0	0	0	0	0	0	0	0	0	0	0	0	0	0	0	1	0	0
259	13	56	500	999	10	70	30	12	12	864	753	755	739	0	0	0	0	0	0	0	0	0	0	0	0	0	0	0	0	0	1	0	0
271	1	81	300	999	50	50	50	50	50	753	755	739	0	0	0	0	0	139490	0	0	0	0	0	0	0	0	0	0	0	0	0	99	500
271	2	81	1500	999	50	90	50	50	50	798	799	753	755	739	0	0	0	0	0	0	0	0	0	0	0	0	0	0	0	0	0	99	500
271	3	81	1500	999	50	90	50	50	50	800	801	753	755	739	0	0	0	0	0	0	0	0	0	0	0	0	0	0	0	0	0	99	500
271	4	81	1500	999	50	90	50	50	50	802	803	804	805	753	755	739	0	0	0	0	0	0	0	0	0	0	0	0	0	0	0	99	500
271	5	81	1500	999	80	90	50	50	50	792	793	753	755	739	0	0	0	0	0	0	0	0	0	0	0	0	0	0	0	0	0	99	500
271	6	81	1500	999	80	90	50	50	80	808	809	792	793	753	755	739	0	0	0	0	0	0	0	0	0	0	0	0	0	0	0	99	500
271	7	81	1500	999	80	90	50	50	80	798	799	792	793	753	755	739	0	0	0	0	0	0	0	0	0	0	0	0	0	0	0	99	500
271	8	81	1500	999	80	90	50	50	80	792	797	753	755	739	793	795	0	0	0	0	0	0	0	0	0	0	0	0	0	0	0	99	500
271	9	81	1500	999	80	90	50	50	80	806	807	792	793	753	755	739	0	0	0	0	0	0	0	0	0	0	0	0	0	0	0	99	500
271	10	81	1500	999	80	90	50	50	80	804	805	792	793	753	755	739	0	0	0	0	0	0	0	0	0	0	0	0	0	0	0	99	500
271	11	81	800	999	80	90	30	50	80	875	878	879	880	881	753	755	739	0	0	0	0	0	0	0	0	0	0	0	0	0	0	99	500
271	12	81	1500	999	80	90	50	50	80	794	795	792	793	753	755	739	0	0	0	0	0	0	0	0	0	0	0	0	0	0	0	99	500
271	13	81	1500	999	80	90	50	50	80	794	795	792	793	753	755	739	0	0	0	0	0	0	0	0	0	0	0	0	0	0	0	99	500
271	14	81	7000	999	99	99	80	50	80	793	799	801	805	803	794	739	0	0	0	0	0	0	0	0	0	0	0	0	0	0	0	99	500
367	14	99	9999	999	99	99	99	99	99	753	755	739	0	0	0	0	0	0	0	0	0	0	0	0	0	0	0	0	0	0	0	99	500
0	1	0	0	0	0	0	0	0	0	0	0	0	0	0	0	0	0	0	0	0	0	0	0	0	0	0	0	0	0	0	0	0	0
0	1	0	0	0	0	0	0	0	0	0	0	0	0	0	0	0	0	0	0	0	0	0	0	0	0	0	0	0	0	0	0	0	0
0	1	0	0	0	0	0	0	0	0	0	0	0	0	0	0	0	0	0	0	0	0	0	0	0	0	0	0	0	0	0	0	0	0
0	1	0	0	0	0	0	0	0	0	0	0	0	0	0	0	0	0	0	0	0	0	0	0	0	0	0	0	0	0	0	0	0	0
0	1	0	0	0	0	0	0	0	0	0	0	0	0	0	0	0	0	0	0	0	0	0	0	0	0	0	0	0	0	0	0	0	0
0	1	0	0	0	0	0	0	0	0	0	0	0	0	0	0	0	0	0	0	0	0	0	0	0	0	0	0	0	0	0	0	0	0
0	1	0	0	0	0	0	0	0	0	0	0	0	0	0	0	0	0	0	0	0	0	0	0	0	0	0	0	0	0	0	0	0	0
0	1	0	0	0	0	0	0	0	0	0	0	0	0	0	0	0	0	0	0	0	0	0	0	0	0	0	0	0	0	0	0	0	0
0	1	0	0	0	0	0	0	0	0	0	0	0	0	0	0	0	0	0	0	0	0	0	0	0	0	0	0	0	0	0	0	0	0
0	1	0	0	0	0	0	0	0	0	0	0	0	0	0	0	0	0	0	0	0	0	0	0	0	0	0	0	0	0	0	0	0	0
0	1	0	0	0	0	0	0	0	0	0	0	0	0	0	0	0	0	0	0	0	0	0	0	0	0	0	0	0	0	0	0	0	0
0	1	0	0	0	0	0	0	0	0	0	0	0	0	0	0	0	0	0	0	0	0	0	0	0	0	0	0	0	0	0	0	0	0
0	1	0	0	0	0	0	0	0	0	0	0	0	0	0	0	0	0	0	0	0	0	0	0	0	0	0	0	0	0	0	0	0	0
0	1	0	0	0	0	0	0	0	0	0	0	0	0	0	0	0	0	0	0	0	0	0	0	0	0	0	0	0	0	0	0	0	0
0	1	0	0	0	0	0	0	0	0	0	0	0	0	0	0	0	0	0	0	0	0	0	0	0	0	0	0	0	0	0	0	0	0
0	1	0	0	0	0	0	0	0	0	0	0	0	0	0	0	0	0	0	0	0	0	0	0	0	0	0	0	0	0	0	0	0	0
0	1	0	0	0	0	0	0	0	0	0	0	0	0	0	0	0	0	0	0	0	0	0	0	0	0	0	0	0	0	0	0	0	0
0	1	0	0	0	0	0	0	0	0	0	0	0	0	0	0	0	0	0	0	0	0	0	0	0	0	0	0	0	0	0	0	0	0
0	1	0	0	0	0	0	0	0	0	0	0	0	0	0	0	0	0	0	0	0	0	0	0	0	0	0	0	0	0	0	0	0	0
256	12	63	2185	999	47	39	42	36	41	801	818	820	739	754	0	0	0	50808	0	24665	100	0	0	0	0	0	0	0	0	0	1	90	30
256	7	61	1453	999	38	43	35	53	29	807	813	0	0	0	0	0	0	0	0	0	0	0	0	0	0	0	0	0	0	0	2	90	30
256	12	65	1722	999	49	34	43	34	66	792	809	816	739	754	752	0	0	59463	0	0	0	0	0	0	0	0	0	0	0	0	0	90	30
256	12	64	1490	999	43	53	37	37	37	792	798	738	0	0	0	0	0	0	0	0	0	0	0	0	0	0	0	0	0	0	0	90	30
256	12	64	1641	999	43	43	34	43	49	804	819	738	0	0	0	0	0	0	0	0	0	0	0	0	0	0	0	0	0	0	0	90	30
258	11	66	1444	999	39	51	39	39	99	817	739	0	0	0	0	0	0	65938	0	24641	100	0	0	0	0	0	0	0	0	0	1	90	30
256	13	69	2739	999	99	99	45	40	50	739	755	804	806	794	0	0	0	76861	0	20522	100	0	0	0	0	0	0	0	0	0	1	90	30
32768	12	66	2040	180	54	41	41	38	29	131	132	188	196	205	752	754	739	6753	0	24843	30	24641	50	24653	20	0	0	0	0	0	1	90	30
32768	13	69	4000	500	41	99	36	36	43	80	15	25	45	35	206	215	739	7406	0	24857	50	24653	50	0	0	0	0	0	0	0	1	90	30
256	11	69	2000	999	41	51	43	49	70	739	807	814	820	0	0	0	0	65933	0	24672	100	0	0	0	0	0	0	0	0	0	0	90	30
256	5	70	2400	999	42	44	66	37	42	739	0	0	0	0	0	0	0	93403	0	24668	100	0	0	0	0	0	0	0	0	0	2	90	30
256	3	68	630	999	42	51	38	42	37	798	800	802	804	0	0	0	0	0	0	0	0	0	0	0	0	0	0	0	0	0	1	90	30
256	2	68	740	999	39	31	42	39	45	0	0	0	0	0	0	0	0	0	0	0	0	0	0	0	0	0	0	0	0	0	1	90	30
256	9	72	2098	999	42	65	43	42	43	739	799	801	803	805	752	754	0	42498	0	24644	100	0	0	0	0	0	0	0	0	0	1	90	30
256	10	74	2349	999	46	46	46	46	42	739	806	895	0	0	0	0	0	97906	0	0	0	0	0	0	0	0	0	0	0	0	1	90	30
256	7	72	1831	999	39	45	42	39	99	812	738	0	0	0	0	0	0	0	0	24653	100	0	0	0	0	0	0	0	0	0	1	90	30
256	9	75	1913	999	61	59	99	43	66	739	792	801	805	818	820	819	0	108932	0	24669	100	0	0	0	0	0	0	0	0	0	0	90	30
256	6	77	2473	999	46	70	45	53	99	739	821	822	863	755	753	0	0	76664	0	0	0	0	0	0	0	0	0	0	0	0	0	90	30
256	13	78	2739	999	57	66	53	46	88	739	805	819	816	820	755	792	0	43443	0	24648	100	0	0	0	0	0	0	0	0	0	1	90	30
256	13	79	3333	999	85	80	60	50	75	739	815	864	834	755	752	820	0	129050	0	24673	100	0	0	0	0	0	0	0	0	0	1	90	30
32768	4	72	2251	500	45	60	44	45	80	80	61	75	88	94	196	200	206	7684	0	24754	30	24653	60	24648	10	0	0	0	0	0	1	90	30
32768	12	79	2903	360	70	46	52	49	75	116	131	146	117	188	211	205	834	9311	0	24842	30	24653	50	24648	20	0	0	0	0	0	0	90	20
512	1	10	935	50	1	1	1	1	1	126	0	0	0	0	0	0	0	588	0	24593	100	0	0	0	0	0	0	0	0	0	1	90	20
512	1	14	1656	80	1	4	1	3	2	21	0	0	0	0	0	0	0	1685	0	24594	100	0	0	0	0	0	0	0	0	0	1	90	20
512	1	20	2944	99	1	7	1	6	3	11	0	0	0	0	0	0	0	4022	0	24594	100	0	0	0	0	0	0	0	0	0	1	90	20
512	1	28	6000	140	1	8	1	9	4	42	0	0	0	0	0	0	0	7662	0	24595	100	0	0	0	0	0	0	0	0	0	1	90	20
512	1	36	5814	150	1	9	1	12	5	58	0	0	0	0	0	0	0	12119	0	24595	100	0	0	0	0	0	0	0	0	0	1	90	20
512	1	43	6360	177	1	12	2	15	6	72	180	0	0	0	0	0	0	16441	0	24596	100	0	0	0	0	0	0	0	0	0	1	90	20
512	1	51	5264	240	1	13	2	18	7	32	196	0	0	0	0	0	0	21134	0	24596	100	0	0	0	0	0	0	0	0	0	1	90	20
512	1	59	9072	320	1	15	2	21	8	79	89	0	0	0	0	0	0	28055	0	24597	100	0	0	0	0	0	0	0	0	0	1	90	20
512	1	65	5265	400	12	1	2	24	9	131	211	0	0	0	0	0	0	32413	0	24597	100	0	0	0	0	0	0	0	0	0	1	90	20
512	1	72	5472	500	1	17	2	27	10	80	0	0	0	0	0	0	0	36885	0	24598	100	0	0	0	0	0	0	0	0	0	1	90	20
0	1	0	0	0	0	0	0	0	0	0	0	0	0	0	0	0	0	0	0	0	0	0	0	0	0	0	0	0	0	0	0	0	0
0	1	0	0	0	0	0	0	0	0	0	0	0	0	0	0	0	0	0	0	0	0	0	0	0	0	0	0	0	0	0	0	0	0
0	1	0	0	0	0	0	0	0	0	0	0	0	0	0	0	0	0	0	0	0	0	0	0	0	0	0	0	0	0	0	0	0	0
0	1	0	0	0	0	0	0	0	0	0	0	0	0	0	0	0	0	0	0	0	0	0	0	0	0	0	0	0	0	0	0	0	0
0	1	0	0	0	0	0	0	0	0	0	0	0	0	0	0	0	0	0	0	0	0	0	0	0	0	0	0	0	0	0	0	0	0
0	1	0	0	0	0	0	0	0	0	0	0	0	0	0	0	0	0	0	0	0	0	0	0	0	0	0	0	0	0	0	0	0	0
0	1	0	0	0	0	0	0	0	0	0	0	0	0	0	0	0	0	0	0	0	0	0	0	0	0	0	0	0	0	0	0	0	0
0	1	0	0	0	0	0	0	0	0	0	0	0	0	0	0	0	0	0	0	0	0	0	0	0	0	0	0	0	0	0	0	0	0
0	1	0	0	0	0	0	0	0	0	0	0	0	0	0	0	0	0	0	0	0	0	0	0	0	0	0	0	0	0	0	0	0	0
0	1	0	0	0	0	0	0	0	0	0	0	0	0	0	0	0	0	0	0	0	0	0	0	0	0	0	0	0	0	0	0	0	0
0	1	0	0	0	0	0	0	0	0	0	0	0	0	0	0	0	0	0	0	0	0	0	0	0	0	0	0	0	0	0	0	0	0
0	1	0	0	0	0	0	0	0	0	0	0	0	0	0	0	0	0	0	0	0	0	0	0	0	0	0	0	0	0	0	0	0	0
0	1	0	0	0	0	0	0	0	0	0	0	0	0	0	0	0	0	0	0	0	0	0	0	0	0	0	0	0	0	0	0	0	0
0	1	0	0	0	0	0	0	0	0	0	0	0	0	0	0	0	0	0	0	0	0	0	0	0	0	0	0	0	0	0	0	0	0
0	1	0	0	0	0	0	0	0	0	0	0	0	0	0	0	0	0	0	0	0	0	0	0	0	0	0	0	0	0	0	0	0	0
0	1	0	0	0	0	0	0	0	0	0	0	0	0	0	0	0	0	0	0	0	0	0	0	0	0	0	0	0	0	0	0	0	0
0	1	0	0	0	0	0	0	0	0	0	0	0	0	0	0	0	0	0	0	0	0	0	0	0	0	0	0	0	0	0	0	0	0
0	1	0	0	0	0	0	0	0	0	0	0	0	0	0	0	0	0	0	0	0	0	0	0	0	0	0	0	0	0	0	0	0	0
0	1	0	0	0	0	0	0	0	0	0	0	0	0	0	0	0	0	0	0	0	0	0	0	0	0	0	0	0	0	0	0	0	0
0	1	0	0	0	0	0	0	0	0	0	0	0	0	0	0	0	0	0	0	0	0	0	0	0	0	0	0	0	0	0	0	0	0
0	1	0	0	0	0	0	0	0	0	0	0	0	0	0	0	0	0	0	0	0	0	0	0	0	0	0	0	0	0	0	0	0	0
0	1	0	0	0	0	0	0	0	0	0	0	0	0	0	0	0	0	0	0	0	0	0	0	0	0	0	0	0	0	0	0	0	0
0	1	0	0	0	0	0	0	0	0	0	0	0	0	0	0	0	0	0	0	0	0	0	0	0	0	0	0	0	0	0	0	0	0
0	1	0	0	0	0	0	0	0	0	0	0	0	0	0	0	0	0	0	0	0	0	0	0	0	0	0	0	0	0	0	0	0	0
0	1	0	0	0	0	0	0	0	0	0	0	0	0	0	0	0	0	0	0	0	0	0	0	0	0	0	0	0	0	0	0	0	0
0	1	0	0	0	0	0	0	0	0	0	0	0	0	0	0	0	0	0	0	0	0	0	0	0	0	0	0	0	0	0	0	0	0
0	1	0	0	0	0	0	0	0	0	0	0	0	0	0	0	0	0	0	0	0	0	0	0	0	0	0	0	0	0	0	0	0	0
0	1	0	0	0	0	0	0	0	0	0	0	0	0	0	0	0	0	0	0	0	0	0	0	0	0	0	0	0	0	0	0	0	0
0	1	0	0	0	0	0	0	0	0	0	0	0	0	0	0	0	0	0	0	0	0	0	0	0	0	0	0	0	0	0	0	0	0
0	1	0	0	0	0	0	0	0	0	0	0	0	0	0	0	0	0	0	0	0	0	0	0	0	0	0	0	0	0	0	0	0	0
0	1	0	0	0	0	0	0	0	0	0	0	0	0	0	0	0	0	0	0	0	0	0	0	0	0	0	0	0	0	0	0	0	0
0	1	0	0	0	0	0	0	0	0	0	0	0	0	0	0	0	0	0	0	0	0	0	0	0	0	0	0	0	0	0	0	0	0
0	1	0	0	0	0	0	0	0	0	0	0	0	0	0	0	0	0	0	0	0	0	0	0	0	0	0	0	0	0	0	0	0	0
0	1	0	0	0	0	0	0	0	0	0	0	0	0	0	0	0	0	0	0	0	0	0	0	0	0	0	0	0	0	0	0	0	0
0	1	0	0	0	0	0	0	0	0	0	0	0	0	0	0	0	0	0	0	0	0	0	0	0	0	0	0	0	0	0	0	0	0
0	1	0	0	0	0	0	0	0	0	0	0	0	0	0	0	0	0	0	0	0	0	0	0	0	0	0	0	0	0	0	0	0	0
0	1	0	0	0	0	0	0	0	0	0	0	0	0	0	0	0	0	0	0	0	0	0	0	0	0	0	0	0	0	0	0	0	0
0	1	0	0	0	0	0	0	0	0	0	0	0	0	0	0	0	0	0	0	0	0	0	0	0	0	0	0	0	0	0	0	0	0
271	23	99	20000	999	99	99	99	99	99	739	753	755	0	0	0	0	0	0	0	0	0	0	0	0	0	0	0	0	0	0	0	99	80
271	23	99	20000	999	99	99	99	99	99	739	753	755	798	792	0	0	0	0	0	0	0	0	0	0	0	0	0	0	0	0	0	99	80
271	23	99	20000	999	99	99	99	99	99	739	753	755	800	818	0	0	0	0	0	0	0	0	0	0	0	0	0	0	0	0	0	99	80
271	23	99	20000	999	99	99	99	99	99	739	753	755	804	794	819	0	0	0	0	0	0	0	0	0	0	0	0	0	0	0	0	99	80
271	23	99	20000	999	99	99	99	99	99	739	753	755	802	796	0	0	0	0	0	0	0	0	0	0	0	0	0	0	0	0	0	99	80
271	23	99	20000	999	99	99	99	99	99	739	753	755	806	821	0	0	0	0	0	0	0	0	0	0	0	0	0	0	0	0	0	99	80
271	23	99	20000	999	99	99	99	99	99	739	753	755	808	822	0	0	0	0	0	0	0	0	0	0	0	0	0	0	0	0	0	99	80
271	23	99	20000	999	99	99	99	99	99	739	753	755	820	813	815	816	0	0	0	0	0	0	0	0	0	0	0	0	0	0	0	99	80
271	23	99	20000	999	99	99	99	99	99	739	753	755	0	0	0	0	0	0	0	0	0	0	0	0	0	0	0	0	0	0	0	99	80
271	23	99	20000	999	99	99	99	99	99	739	753	755	0	0	0	0	0	0	0	0	0	0	0	0	0	0	0	0	0	0	0	99	80
0	1	0	0	0	0	0	0	0	0	0	0	0	0	0	0	0	0	0	0	0	0	0	0	0	0	0	0	0	0	0	0	0	0
0	1	0	0	0	0	0	0	0	0	0	0	0	0	0	0	0	0	0	0	0	0	0	0	0	0	0	0	0	0	0	0	0	0
0	1	0	0	0	0	0	0	0	0	0	0	0	0	0	0	0	0	0	0	0	0	0	0	0	0	0	0	0	0	0	0	0	0
0	1	0	0	0	0	0	0	0	0	0	0	0	0	0	0	0	0	0	0	0	0	0	0	0	0	0	0	0	0	0	0	0	0
0	1	0	0	0	0	0	0	0	0	0	0	0	0	0	0	0	0	0	0	0	0	0	0	0	0	0	0	0	0	0	0	0	0
0	1	0	0	0	0	0	0	0	0	0	0	0	0	0	0	0	0	0	0	0	0	0	0	0	0	0	0	0	0	0	0	0	0
0	1	0	0	0	0	0	0	0	0	0	0	0	0	0	0	0	0	0	0	0	0	0	0	0	0	0	0	0	0	0	0	0	0
0	1	0	0	0	0	0	0	0	0	0	0	0	0	0	0	0	0	0	0	0	0	0	0	0	0	0	0	0	0	0	0	0	0
0	1	0	0	0	0	0	0	0	0	0	0	0	0	0	0	0	0	0	0	0	0	0	0	0	0	0	0	0	0	0	0	0	0
0	1	0	0	0	0	0	0	0	0	0	0	0	0	0	0	0	0	0	0	0	0	0	0	0	0	0	0	0	0	0	0	0	0
256	3	20	715	999	14	20	16	14	11	798	799	0	0	0	0	0	0	503	0	24739	30	0	0	0	0	0	0	0	0	0	1	90	30
256	11	21	820	999	18	12	14	15	13	802	815	0	0	0	0	0	0	503	0	24835	30	0	0	0	0	0	0	0	0	0	0	90	30
256	11	22	812	999	15	20	17	13	15	808	816	0	0	0	0	0	0	503	0	24831	30	0	0	0	0	0	0	0	0	0	1	90	30
256	4	28	1130	999	15	25	20	16	21	808	812	0	0	0	0	0	0	958	0	24751	30	0	0	0	0	0	0	0	0	0	1	90	30
256	10	29	1213	999	14	21	19	17	49	806	821	0	0	0	0	0	0	1012	0	24819	30	0	0	0	0	0	0	0	0	0	1	90	30
256	6	30	1374	999	19	23	19	18	25	798	817	0	0	0	0	0	0	1045	0	24776	30	0	0	0	0	0	0	0	0	0	0	90	30
256	12	36	1443	999	27	23	23	23	26	794	814	0	0	0	0	0	0	1515	0	24850	30	0	0	0	0	0	0	0	0	0	1	90	30
256	4	37	1198	999	20	24	21	36	24	802	806	0	0	0	0	0	0	1568	0	24746	30	0	0	0	0	0	0	0	0	0	0	90	30
256	13	38	1201	999	24	35	24	24	19	798	800	802	804	0	0	0	0	1592	0	24862	30	0	0	0	0	0	0	0	0	0	1	90	30
256	9	43	1445	999	36	25	27	23	75	804	819	820	0	0	0	0	0	2055	0	24805	30	0	0	0	0	0	0	0	0	0	0	90	30
256	13	44	1797	999	32	28	28	28	28	794	738	0	0	0	0	0	0	2087	0	24852	30	0	0	0	0	0	0	0	0	0	1	90	30
256	2	45	1612	999	28	36	25	28	31	0	0	0	0	0	0	0	0	2104	0	24730	30	0	0	0	0	0	0	0	0	0	1	90	30
256	6	50	1722	999	36	35	31	31	31	798	802	796	738	0	0	0	0	2642	0	24770	30	0	0	0	0	0	0	0	0	0	1	90	30
256	5	51	1595	999	40	32	36	30	77	792	794	811	820	834	739	0	0	2686	0	24758	30	0	0	0	0	0	0	0	0	0	1	90	30
256	5	52	1858	999	34	43	33	29	25	808	798	738	0	0	0	0	0	2712	0	24765	30	0	0	0	0	0	0	0	0	0	2	90	30
256	9	59	1753	999	28	45	35	37	47	799	801	803	805	752	754	0	0	3507	0	24809	30	0	0	0	0	0	0	0	0	0	1	90	30
256	11	60	2000	999	30	30	33	40	55	800	804	812	818	819	820	0	0	3578	0	24838	30	0	0	0	0	0	0	0	0	0	0	90	30
256	9	61	1721	999	47	41	45	33	38	792	801	803	739	0	0	0	0	3606	0	24814	30	0	0	0	0	0	0	0	0	0	0	90	30
256	8	65	2400	999	55	30	40	35	42	793	834	0	0	0	0	0	0	4052	0	24798	30	0	0	0	0	0	0	0	0	0	1	90	30
256	3	66	1999	999	38	66	37	39	39	798	799	754	738	0	0	0	0	4088	0	24742	30	0	0	0	0	0	0	0	0	0	1	90	30
256	10	67	2422	999	42	42	38	37	87	806	807	808	809	821	822	738	0	4124	0	24822	30	0	0	0	0	0	0	0	0	0	1	90	30
256	6	71	2345	999	44	49	31	40	99	804	805	819	820	739	0	0	0	4611	0	24774	30	0	0	0	0	0	0	0	0	0	1	90	30
258	11	74	1745	999	46	46	33	43	61	792	817	739	0	0	0	0	0	4658	0	24834	30	0	0	0	0	0	0	0	0	0	1	90	30
256	5	77	2311	999	51	43	42	48	77	801	818	797	834	820	739	0	0	4682	0	24762	30	0	0	0	0	0	0	0	0	0	2	90	30
0	1	0	0	0	0	0	0	0	0	0	0	0	0	0	0	0	0	0	0	0	0	0	0	0	0	0	0	0	0	0	0	0	0
0	1	0	0	0	0	0	0	0	0	0	0	0	0	0	0	0	0	0	0	0	0	0	0	0	0	0	0	0	0	0	0	0	0
0	1	0	0	0	0	0	0	0	0	0	0	0	0	0	0	0	0	0	0	0	0	0	0	0	0	0	0	0	0	0	0	0	0
0	1	0	0	0	0	0	0	0	0	0	0	0	0	0	0	0	0	0	0	0	0	0	0	0	0	0	0	0	0	0	0	0	0
0	1	0	0	0	0	0	0	0	0	0	0	0	0	0	0	0	0	0	0	0	0	0	0	0	0	0	0	0	0	0	0	0	0
0	1	0	0	0	0	0	0	0	0	0	0	0	0	0	0	0	0	0	0	0	0	0	0	0	0	0	0	0	0	0	0	0	0
0	1	0	0	0	0	0	0	0	0	0	0	0	0	0	0	0	0	0	0	0	0	0	0	0	0	0	0	0	0	0	0	0	0
0	1	0	0	0	0	0	0	0	0	0	0	0	0	0	0	0	0	0	0	0	0	0	0	0	0	0	0	0	0	0	0	0	0
0	1	0	0	0	0	0	0	0	0	0	0	0	0	0	0	0	0	0	0	0	0	0	0	0	0	0	0	0	0	0	0	0	0
0	1	0	0	0	0	0	0	0	0	0	0	0	0	0	0	0	0	0	0	0	0	0	0	0	0	0	0	0	0	0	0	0	0
0	1	0	0	0	0	0	0	0	0	0	0	0	0	0	0	0	0	0	0	0	0	0	0	0	0	0	0	0	0	0	0	0	0
0	1	0	0	0	0	0	0	0	0	0	0	0	0	0	0	0	0	0	0	0	0	0	0	0	0	0	0	0	0	0	0	0	0
0	1	0	0	0	0	0	0	0	0	0	0	0	0	0	0	0	0	0	0	0	0	0	0	0	0	0	0	0	0	0	0	0	0
0	1	0	0	0	0	0	0	0	0	0	0	0	0	0	0	0	0	0	0	0	0	0	0	0	0	0	0	0	0	0	0	0	0
0	1	0	0	0	0	0	0	0	0	0	0	0	0	0	0	0	0	0	0	0	0	0	0	0	0	0	0	0	0	0	0	0	0
0	1	0	0	0	0	0	0	0	0	0	0	0	0	0	0	0	0	0	0	0	0	0	0	0	0	0	0	0	0	0	0	0	0
0	1	0	0	0	0	0	0	0	0	0	0	0	0	0	0	0	0	0	0	0	0	0	0	0	0	0	0	0	0	0	0	0	0
0	1	0	0	0	0	0	0	0	0	0	0	0	0	0	0	0	0	0	0	0	0	0	0	0	0	0	0	0	0	0	0	0	0
0	1	0	0	0	0	0	0	0	0	0	0	0	0	0	0	0	0	0	0	0	0	0	0	0	0	0	0	0	0	0	0	0	0
0	1	0	0	0	0	0	0	0	0	0	0	0	0	0	0	0	0	0	0	0	0	0	0	0	0	0	0	0	0	0	0	0	0
0	1	0	0	0	0	0	0	0	0	0	0	0	0	0	0	0	0	0	0	0	0	0	0	0	0	0	0	0	0	0	0	0	0
0	1	0	0	0	0	0	0	0	0	0	0	0	0	0	0	0	0	0	0	0	0	0	0	0	0	0	0	0	0	0	0	0	0
0	1	0	0	0	0	0	0	0	0	0	0	0	0	0	0	0	0	0	0	0	0	0	0	0	0	0	0	0	0	0	0	0	0
0	1	0	0	0	0	0	0	0	0	0	0	0	0	0	0	0	0	0	0	0	0	0	0	0	0	0	0	0	0	0	0	0	0
0	1	0	0	0	0	0	0	0	0	0	0	0	0	0	0	0	0	0	0	0	0	0	0	0	0	0	0	0	0	0	0	0	0
0	1	0	0	0	0	0	0	0	0	0	0	0	0	0	0	0	0	0	0	0	0	0	0	0	0	0	0	0	0	0	0	0	0
0	1	0	0	0	0	0	0	0	0	0	0	0	0	0	0	0	0	0	0	0	0	0	0	0	0	0	0	0	0	0	0	0	0
0	1	0	0	0	0	0	0	0	0	0	0	0	0	0	0	0	0	0	0	0	0	0	0	0	0	0	0	0	0	0	0	0	0
0	1	0	0	0	0	0	0	0	0	0	0	0	0	0	0	0	0	0	0	0	0	0	0	0	0	0	0	0	0	0	0	0	0
0	1	0	0	0	0	0	0	0	0	0	0	0	0	0	0	0	0	0	0	0	0	0	0	0	0	0	0	0	0	0	0	0	0
0	1	0	0	0	0	0	0	0	0	0	0	0	0	0	0	0	0	0	0	0	0	0	0	0	0	0	0	0	0	0	0	0	0
0	1	0	0	0	0	0	0	0	0	0	0	0	0	0	0	0	0	0	0	0	0	0	0	0	0	0	0	0	0	0	0	0	0
0	1	0	0	0	0	0	0	0	0	0	0	0	0	0	0	0	0	0	0	0	0	0	0	0	0	0	0	0	0	0	0	0	0
0	1	0	0	0	0	0	0	0	0	0	0	0	0	0	0	0	0	0	0	0	0	0	0	0	0	0	0	0	0	0	0	0	0
0	1	0	0	0	0	0	0	0	0	0	0	0	0	0	0	0	0	0	0	0	0	0	0	0	0	0	0	0	0	0	0	0	0
0	1	0	0	0	0	0	0	0	0	0	0	0	0	0	0	0	0	0	0	0	0	0	0	0	0	0	0	0	0	0	0	0	0
0	1	0	0	0	0	0	0	0	0	0	0	0	0	0	0	0	0	0	0	0	0	0	0	0	0	0	0	0	0	0	0	0	0
0	1	0	0	0	0	0	0	0	0	0	0	0	0	0	0	0	0	0	0	0	0	0	0	0	0	0	0	0	0	0	0	0	0
0	1	0	0	0	0	0	0	0	0	0	0	0	0	0	0	0	0	0	0	0	0	0	0	0	0	0	0	0	0	0	0	0	0
0	1	0	0	0	0	0	0	0	0	0	0	0	0	0	0	0	0	0	0	0	0	0	0	0	0	0	0	0	0	0	0	0	0
0	1	0	0	0	0	0	0	0	0	0	0	0	0	0	0	0	0	0	0	0	0	0	0	0	0	0	0	0	0	0	0	0	0
0	1	0	0	0	0	0	0	0	0	0	0	0	0	0	0	0	0	0	0	0	0	0	0	0	0	0	0	0	0	0	0	0	0
0	1	0	0	0	0	0	0	0	0	0	0	0	0	0	0	0	0	0	0	0	0	0	0	0	0	0	0	0	0	0	0	0	0
0	1	0	0	0	0	0	0	0	0	0	0	0	0	0	0	0	0	0	0	0	0	0	0	0	0	0	0	0	0	0	0	0	0
0	1	0	0	0	0	0	0	0	0	0	0	0	0	0	0	0	0	0	0	0	0	0	0	0	0	0	0	0	0	0	0	0	0
0	1	0	0	0	0	0	0	0	0	0	0	0	0	0	0	0	0	0	0	0	0	0	0	0	0	0	0	0	0	0	0	0	0
0	1	0	0	0	0	0	0	0	0	0	0	0	0	0	0	0	0	0	0	0	0	0	0	0	0	0	0	0	0	0	0	0	0
0	1	0	0	0	0	0	0	0	0	0	0	0	0	0	0	0	0	0	0	0	0	0	0	0	0	0	0	0	0	0	0	0	0
0	1	0	0	0	0	0	0	0	0	0	0	0	0	0	0	0	0	0	0	0	0	0	0	0	0	0	0	0	0	0	0	0	0
0	1	0	0	0	0	0	0	0	0	0	0	0	0	0	0	0	0	0	0	0	0	0	0	0	0	0	0	0	0	0	0	0	0
0	1	0	0	0	0	0	0	0	0	0	0	0	0	0	0	0	0	0	0	0	0	0	0	0	0	0	0	0	0	0	0	0	0
0	1	0	0	0	0	0	0	0	0	0	0	0	0	0	0	0	0	0	0	0	0	0	0	0	0	0	0	0	0	0	0	0	0
0	1	0	0	0	0	0	0	0	0	0	0	0	0	0	0	0	0	0	0	0	0	0	0	0	0	0	0	0	0	0	0	0	0
0	1	0	0	0	0	0	0	0	0	0	0	0	0	0	0	0	0	0	0	0	0	0	0	0	0	0	0	0	0	0	0	0	0
0	1	0	0	0	0	0	0	0	0	0	0	0	0	0	0	0	0	0	0	0	0	0	0	0	0	0	0	0	0	0	0	0	0
0	1	0	0	0	0	0	0	0	0	0	0	0	0	0	0	0	0	0	0	0	0	0	0	0	0	0	0	0	0	0	0	0	0
0	1	0	0	0	0	0	0	0	0	0	0	0	0	0	0	0	0	0	0	0	0	0	0	0	0	0	0	0	0	0	0	0	0
