encNo1	probability1	encNo2	probability2	encNo3	probability3	encNo4	probability4	encNo5	probability5	encNo6	probability6	encNo7	probability7	encNo8	probability8	order1	order2	order3	order4	order5	order6	order7	order8
1	100	0	0	0	0	0	0	0	0	0	0	0	0	0	0	0	0	0	0	0	0	0	0
34	25	35	25	37	25	34	25	0	0	0	0	0	0	0	0	1	2	3	1	0	0	0	0
38	25	37	25	39	25	34	25	0	0	0	0	0	0	0	0	1	2	3	4	0	0	0	0
37	25	42	25	43	25	34	25	0	0	0	0	0	0	0	0	1	2	3	4	0	0	0	0
40	25	46	25	42	25	37	25	0	0	0	0	0	0	0	0	1	2	3	4	0	0	0	0
47	25	46	25	50	25	49	25	0	0	0	0	0	0	0	0	1	2	3	4	0	0	0	0
47	25	40	25	53	25	49	25	0	0	0	0	0	0	0	0	1	2	3	4	0	0	0	0
55	25	56	25	58	25	54	25	0	0	0	0	0	0	0	0	1	2	3	4	0	0	0	0
55	25	53	25	61	25	59	25	0	0	0	0	0	0	0	0	1	2	3	4	0	0	0	0
69	25	64	25	69	25	59	25	0	0	0	0	0	0	0	0	1	2	3	4	0	0	0	0
68	25	60	25	72	25	59	25	0	0	0	0	0	0	0	0	1	2	3	4	0	0	0	0
63	25	68	25	63	25	72	25	0	0	0	0	0	0	0	0	1	2	3	4	0	0	0	0
74	25	72	25	46	25	73	25	0	0	0	0	0	0	0	0	1	2	3	4	0	0	0	0
68	25	74	25	59	25	53	25	0	0	0	0	0	0	0	0	1	2	3	4	0	0	0	0
75	25	76	25	77	25	78	25	0	0	0	0	0	0	0	0	1	2	3	4	0	0	0	0
79	25	63	25	80	25	81	25	0	0	0	0	0	0	0	0	1	2	3	4	0	0	0	0
82	25	83	25	84	25	85	25	0	0	0	0	0	0	0	0	1	2	3	4	0	0	0	0
80	25	84	25	82	25	85	25	0	0	0	0	0	0	0	0	1	2	3	4	0	0	0	0
94	25	87	25	88	25	89	25	0	0	0	0	0	0	0	0	1	2	3	4	0	0	0	0
86	10	90	10	92	10	93	20	94	10	87	10	88	10	89	20	1	2	3	4	0	0	0	0
95	10	86	10	96	10	97	20	86	10	90	10	92	10	93	20	1	2	3	4	0	0	0	0
98	10	99	10	100	10	101	20	95	10	86	10	96	10	97	20	1	2	3	4	0	0	0	0
95	10	97	10	99	10	93	20	98	10	99	10	100	10	101	20	1	2	3	4	0	0	0	0
104	10	110	10	105	10	120	20	95	10	97	10	99	10	93	20	1	2	3	4	0	0	0	0
114	10	109	10	107	10	113	20	104	10	110	10	105	10	120	20	1	2	3	4	0	0	0	0
102	10	103	10	115	10	108	20	114	10	109	10	107	10	113	20	1	2	3	4	0	0	0	0
116	10	106	10	117	10	112	20	102	10	103	10	115	10	108	20	1	2	3	4	0	0	0	0
118	10	119	10	122	10	123	20	116	10	106	10	117	10	112	20	1	2	3	4	0	0	0	0
122	10	123	10	124	10	125	20	118	10	119	10	120	10	121	20	1	2	3	4	0	0	0	0
126	10	127	10	128	10	129	20	122	10	123	10	124	10	125	20	1	2	3	4	0	0	0	0
130	10	131	10	132	10	133	20	126	10	127	10	128	10	129	20	1	2	3	4	0	0	0	0
134	10	135	10	136	10	137	20	130	10	131	10	132	10	133	20	1	2	3	4	0	0	0	0
138	10	139	10	140	10	141	20	134	10	135	10	136	10	137	20	1	2	3	4	0	0	0	0
161	100	0	0	0	0	0	0	0	0	0	0	0	0	0	0	1	0	0	0	0	0	0	0
162	100	0	0	0	0	0	0	0	0	0	0	0	0	0	0	1	0	0	0	0	0	0	0
163	100	0	0	0	0	0	0	0	0	0	0	0	0	0	0	0	0	0	0	0	0	0	0
145	10	142	10	143	10	144	20	138	10	139	10	140	10	141	20	1	2	3	4	0	0	0	0
164	25	165	25	166	25	167	25	0	0	0	0	0	0	0	0	1	2	3	4	0	0	0	0
168	10	169	10	170	10	171	20	164	10	165	10	166	10	167	20	1	2	3	4	0	0	0	0
165	10	172	10	170	10	166	20	168	10	169	10	170	10	171	20	1	2	3	4	0	0	0	0
173	10	174	10	175	10	176	20	165	10	172	10	170	10	166	20	1	2	3	4	0	0	0	0
177	10	178	10	179	10	180	20	173	10	174	10	175	10	176	20	1	2	3	4	0	0	0	0
181	10	182	10	183	10	184	20	177	10	178	10	179	10	180	20	1	2	3	4	0	0	0	0
185	10	186	10	187	10	188	20	181	10	182	10	183	10	184	20	1	2	3	4	0	0	0	0
189	10	190	10	191	10	192	20	185	10	186	10	187	10	188	20	1	2	3	4	0	0	0	0
193	10	187	10	194	10	195	20	189	10	190	10	191	10	192	20	1	2	3	4	0	0	0	0
196	10	197	10	198	10	199	20	193	10	187	10	194	10	195	20	1	2	3	4	0	0	0	0
200	10	201	10	202	10	203	20	196	10	197	10	198	10	199	20	1	2	3	4	0	0	0	0
204	10	205	10	206	10	207	20	200	10	201	10	202	10	203	20	1	2	3	4	0	0	0	0
208	10	209	10	210	10	211	20	204	10	205	10	206	10	207	20	1	2	3	4	0	0	0	0
212	10	213	10	214	10	215	20	208	10	209	10	210	10	211	20	1	2	3	4	0	0	0	0
216	10	217	10	218	10	219	20	212	10	213	10	214	10	215	20	1	2	3	4	0	0	0	0
220	10	221	10	222	10	223	20	216	10	217	10	218	10	219	20	1	2	3	4	0	0	0	0
224	10	225	10	226	10	227	20	220	10	221	10	222	10	223	20	1	2	3	4	0	0	0	0
228	10	229	10	230	10	231	20	224	10	225	10	226	10	227	20	1	2	3	4	0	0	0	0
232	10	233	10	234	10	235	20	228	10	229	10	230	10	231	20	1	2	3	4	0	0	0	0
236	10	237	10	229	10	238	20	232	10	233	10	234	10	235	20	1	2	3	4	0	0	0	0
239	10	240	10	241	10	242	20	236	10	237	10	229	10	238	20	1	2	3	4	0	0	0	0
234	10	243	10	244	10	245	20	239	10	240	10	241	10	242	20	1	2	3	4	0	0	0	0
244	100	0	0	0	0	0	0	0	0	0	0	0	0	0	0	1	0	0	0	0	0	0	0
245	100	0	0	0	0	0	0	0	0	0	0	0	0	0	0	1	0	0	0	0	0	0	0
273	100	0	0	0	0	0	0	0	0	0	0	0	0	0	0	1	0	0	0	0	0	0	0
274	100	0	0	0	0	0	0	0	0	0	0	0	0	0	0	1	0	0	0	0	0	0	0
275	100	0	0	0	0	0	0	0	0	0	0	0	0	0	0	1	0	0	0	0	0	0	0
731	0	732	0	733	0	734	0	34	25	35	25	37	25	34	25	3	4	0	0	0	0	0	0
764	25	765	25	766	25	767	25	0	0	0	0	0	0	0	0	1	2	3	4	0	0	0	0
760	25	761	25	762	25	763	25	0	0	0	0	0	0	0	0	0	0	0	0	0	0	0	0
768	25	769	25	768	25	769	25	0	0	0	0	0	0	0	0	1	2	3	4	0	0	0	0
246	40	247	60	0	0	0	0	0	0	0	0	0	0	0	0	0	0	0	0	0	0	0	0
246	30	247	30	248	40	0	0	0	0	0	0	0	0	0	0	0	0	0	0	0	0	0	0
246	30	247	30	249	40	0	0	0	0	0	0	0	0	0	0	0	0	0	0	0	0	0	0
246	30	247	30	250	40	0	0	0	0	0	0	0	0	0	0	0	0	0	0	0	0	0	0
251	100	0	0	0	0	0	0	0	0	0	0	0	0	0	0	0	0	0	0	0	0	0	0
0	0	0	0	0	0	0	0	0	0	0	0	0	0	0	0	0	0	0	0	0	0	0	0
0	0	0	0	0	0	0	0	0	0	0	0	0	0	0	0	0	0	0	0	0	0	0	0
0	0	0	0	0	0	0	0	0	0	0	0	0	0	0	0	0	0	0	0	0	0	0	0
0	0	0	0	0	0	0	0	0	0	0	0	0	0	0	0	0	0	0	0	0	0	0	0
0	0	0	0	0	0	0	0	0	0	0	0	0	0	0	0	0	0	0	0	0	0	0	0
0	0	0	0	0	0	0	0	0	0	0	0	0	0	0	0	0	0	0	0	0	0	0	0
0	0	0	0	0	0	0	0	0	0	0	0	0	0	0	0	0	0	0	0	0	0	0	0
280	25	281	25	282	25	283	25	0	0	0	0	0	0	0	0	1	2	3	4	0	0	0	0
284	10	285	10	286	10	287	20	280	10	281	10	282	10	283	20	1	2	3	4	0	0	0	0
288	10	289	10	290	10	291	20	284	10	285	10	286	10	287	20	1	2	3	4	0	0	0	0
292	10	293	10	294	10	295	20	288	10	289	10	290	10	291	20	1	2	3	4	0	0	0	0
296	10	297	10	298	10	299	20	292	10	293	10	294	10	295	20	1	2	3	4	0	0	0	0
300	10	301	10	302	10	295	20	296	10	297	10	298	10	299	20	1	2	3	4	0	0	0	0
303	10	304	10	305	10	306	20	300	10	301	10	302	10	295	20	1	2	3	4	0	0	0	0
307	10	308	10	309	10	310	20	303	10	304	10	305	10	306	20	1	2	3	4	0	0	0	0
311	10	312	10	313	10	314	20	307	10	308	10	309	10	310	20	1	2	3	4	0	0	0	0
315	10	316	10	317	10	318	20	311	10	312	10	313	10	314	20	1	2	3	4	0	0	0	0
319	10	320	10	321	10	322	20	315	10	316	10	317	10	318	20	1	2	3	4	0	0	0	0
323	10	324	10	325	10	326	20	319	10	320	10	321	10	322	20	1	2	3	4	0	0	0	0
327	10	328	10	329	10	330	20	323	10	324	10	325	10	326	20	1	2	3	4	0	0	0	0
331	10	332	10	333	10	334	20	327	10	328	10	329	10	330	20	1	2	3	4	0	0	0	0
335	10	336	10	337	10	338	20	331	10	332	10	333	10	334	20	1	2	3	4	0	0	0	0
339	10	340	10	341	10	342	20	335	10	336	10	337	10	338	20	1	2	3	4	0	0	0	0
343	10	344	10	345	10	346	20	339	10	340	10	341	10	342	20	1	2	3	4	0	0	0	0
347	10	348	10	349	10	350	20	343	10	344	10	345	10	346	20	1	2	3	4	0	0	0	0
351	100	0	0	0	0	0	0	0	0	0	0	0	0	0	0	1	0	0	0	0	0	0	0
352	100	0	0	0	0	0	0	0	0	0	0	0	0	0	0	1	0	0	0	0	0	0	0
353	40	354	50	355	7	356	3	0	0	0	0	0	0	0	0	0	0	0	0	0	0	0	0
353	40	354	60	0	0	0	0	0	0	0	0	0	0	0	0	0	0	0	0	0	0	0	0
353	30	354	30	357	40	0	0	0	0	0	0	0	0	0	0	0	0	0	0	0	0	0	0
353	30	354	30	358	40	0	0	0	0	0	0	0	0	0	0	0	0	0	0	0	0	0	0
353	30	354	30	359	40	0	0	0	0	0	0	0	0	0	0	0	0	0	0	0	0	0	0
353	30	354	30	360	40	0	0	0	0	0	0	0	0	0	0	0	0	0	0	0	0	0	0
0	0	0	0	0	0	0	0	0	0	0	0	0	0	0	0	0	0	0	0	0	0	0	0
0	0	0	0	0	0	0	0	0	0	0	0	0	0	0	0	0	0	0	0	0	0	0	0
0	0	0	0	0	0	0	0	0	0	0	0	0	0	0	0	0	0	0	0	0	0	0	0
0	0	0	0	0	0	0	0	0	0	0	0	0	0	0	0	0	0	0	0	0	0	0	0
380	25	381	25	382	25	383	25	0	0	0	0	0	0	0	0	1	2	3	4	0	0	0	0
384	10	385	10	386	10	387	20	380	10	381	10	382	10	383	20	1	2	3	4	0	0	0	0
388	10	389	10	390	10	391	20	384	10	385	10	386	10	387	20	1	2	3	4	0	0	0	0
392	10	393	10	394	10	395	20	388	10	389	10	390	10	391	20	1	2	3	4	0	0	0	0
396	10	397	10	398	10	399	20	392	10	393	10	394	10	395	20	1	2	3	4	0	0	0	0
400	10	401	10	402	10	403	20	396	10	397	10	398	10	399	20	1	2	3	4	0	0	0	0
404	10	405	10	406	10	407	20	400	10	401	10	402	10	403	20	1	2	3	4	0	0	0	0
408	10	409	10	394	10	410	20	404	10	405	10	406	10	407	20	1	2	3	4	0	0	0	0
411	10	412	10	413	10	414	20	408	10	409	10	394	10	410	20	1	2	3	4	0	0	0	0
415	10	416	10	417	10	418	20	411	10	412	10	413	10	414	20	1	2	3	4	0	0	0	0
419	10	420	10	421	10	422	20	415	10	416	10	417	10	418	20	1	2	3	4	0	0	0	0
423	10	424	10	425	10	426	20	419	10	420	10	421	10	422	20	1	2	3	4	0	0	0	0
423	10	427	10	428	10	429	20	423	10	424	10	425	10	426	20	1	2	3	4	0	0	0	0
433	10	430	10	431	10	432	20	423	10	427	10	428	10	429	20	1	2	3	4	0	0	0	0
434	10	435	10	436	10	437	20	430	10	431	10	432	10	433	20	1	2	3	4	0	0	0	0
438	10	439	10	440	10	441	20	434	10	435	10	436	10	437	20	1	2	3	4	0	0	0	0
442	10	443	10	444	10	445	20	438	10	439	10	440	10	441	20	1	2	3	4	0	0	0	0
446	10	447	10	448	10	449	20	442	10	443	10	444	10	445	20	1	2	3	4	0	0	0	0
450	10	451	10	452	10	453	20	446	10	447	10	448	10	449	20	1	2	3	4	0	0	0	0
438	10	454	10	455	10	456	20	450	10	451	10	452	10	453	20	1	2	3	4	0	0	0	0
457	10	458	10	459	10	460	20	438	10	454	10	455	10	456	20	1	2	3	4	0	0	0	0
461	10	462	10	463	10	464	20	457	10	458	10	459	10	460	20	1	2	3	4	0	0	0	0
465	100	0	0	0	0	0	0	0	0	0	0	0	0	0	0	1	0	0	0	0	0	0	0
466	100	0	0	0	0	0	0	0	0	0	0	0	0	0	0	1	0	0	0	0	0	0	0
467	40	468	60	0	0	0	0	0	0	0	0	0	0	0	0	0	0	0	0	0	0	0	0
467	30	468	30	472	40	0	0	0	0	0	0	0	0	0	0	0	0	0	0	0	0	0	0
467	30	468	30	473	40	0	0	0	0	0	0	0	0	0	0	0	0	0	0	0	0	0	0
467	30	468	30	474	40	0	0	0	0	0	0	0	0	0	0	0	0	0	0	0	0	0	0
467	50	468	40	469	7	471	3	0	0	0	0	0	0	0	0	0	0	0	0	0	0	0	0
467	50	468	40	470	7	471	3	0	0	0	0	0	0	0	0	0	0	0	0	0	0	0	0
0	0	0	0	0	0	0	0	0	0	0	0	0	0	0	0	0	0	0	0	0	0	0	0
0	0	0	0	0	0	0	0	0	0	0	0	0	0	0	0	0	0	0	0	0	0	0	0
0	0	0	0	0	0	0	0	0	0	0	0	0	0	0	0	0	0	0	0	0	0	0	0
0	0	0	0	0	0	0	0	0	0	0	0	0	0	0	0	0	0	0	0	0	0	0	0
0	0	0	0	0	0	0	0	0	0	0	0	0	0	0	0	0	0	0	0	0	0	0	0
0	0	0	0	0	0	0	0	0	0	0	0	0	0	0	0	0	0	0	0	0	0	0	0
0	0	0	0	0	0	0	0	0	0	0	0	0	0	0	0	0	0	0	0	0	0	0	0
0	0	0	0	0	0	0	0	0	0	0	0	0	0	0	0	0	0	0	0	0	0	0	0
0	0	0	0	0	0	0	0	0	0	0	0	0	0	0	0	0	0	0	0	0	0	0	0
0	0	0	0	0	0	0	0	0	0	0	0	0	0	0	0	0	0	0	0	0	0	0	0
500	25	501	25	502	25	503	25	0	0	0	0	0	0	0	0	1	2	3	4	0	0	0	0
504	10	505	10	506	10	507	20	500	10	501	10	502	10	503	20	1	2	3	4	0	0	0	0
508	10	503	10	509	10	510	20	504	10	505	10	506	10	507	20	1	2	3	4	0	0	0	0
511	10	512	10	513	10	514	20	508	10	503	10	509	10	510	20	1	2	3	4	0	0	0	0
515	10	516	10	517	10	503	20	511	10	512	10	513	10	514	20	1	2	3	4	0	0	0	0
518	10	512	10	519	10	520	20	515	10	516	10	517	10	503	20	1	2	3	4	0	0	0	0
521	10	518	10	523	10	524	20	515	10	516	10	517	10	503	20	1	2	3	4	0	0	0	0
525	10	526	10	513	10	527	20	521	10	518	10	523	10	524	20	1	2	3	4	0	0	0	0
528	10	529	10	530	10	510	20	525	10	526	10	513	10	527	20	1	2	3	4	0	0	0	0
531	10	533	10	532	10	534	20	528	10	529	10	530	10	510	20	1	2	3	4	0	0	0	0
535	10	536	10	526	10	537	20	531	10	533	10	532	10	534	20	1	2	3	4	0	0	0	0
538	10	539	10	540	10	541	20	535	10	536	10	526	10	537	20	1	2	3	4	0	0	0	0
542	10	543	10	544	10	545	20	538	10	539	10	540	10	541	20	1	2	3	4	0	0	0	0
546	10	547	10	548	10	549	20	542	10	543	10	544	10	545	20	1	2	3	4	0	0	0	0
550	10	551	10	552	10	553	20	546	10	547	10	548	10	549	20	1	2	3	4	0	0	0	0
554	10	555	10	556	10	550	20	550	10	551	10	552	10	553	20	1	2	3	4	0	0	0	0
557	10	558	10	559	10	560	20	554	10	555	10	556	10	550	20	1	2	3	4	0	0	0	0
561	10	562	10	563	10	564	20	557	10	558	10	559	10	560	20	1	2	3	4	0	0	0	0
565	10	566	10	567	10	568	20	561	10	562	10	563	10	564	20	1	2	3	4	0	0	0	0
569	10	570	10	571	10	572	20	565	10	566	10	567	10	568	20	1	2	3	4	0	0	0	0
573	100	0	0	0	0	0	0	0	0	0	0	0	0	0	0	1	0	0	0	0	0	0	0
574	100	0	0	0	0	0	0	0	0	0	0	0	0	0	0	1	0	0	0	0	0	0	0
575	40	576	60	0	0	0	0	0	0	0	0	0	0	0	0	0	0	0	0	0	0	0	0
575	30	576	30	579	40	0	0	0	0	0	0	0	0	0	0	0	0	0	0	0	0	0	0
575	30	576	30	580	40	0	0	0	0	0	0	0	0	0	0	0	0	0	0	0	0	0	0
575	30	576	30	581	40	0	0	0	0	0	0	0	0	0	0	0	0	0	0	0	0	0	0
575	30	576	30	582	40	0	0	0	0	0	0	0	0	0	0	0	0	0	0	0	0	0	0
575	50	576	40	577	7	578	3	0	0	0	0	0	0	0	0	0	0	0	0	0	0	0	0
0	0	0	0	0	0	0	0	0	0	0	0	0	0	0	0	0	0	0	0	0	0	0	0
0	0	0	0	0	0	0	0	0	0	0	0	0	0	0	0	0	0	0	0	0	0	0	0
0	0	0	0	0	0	0	0	0	0	0	0	0	0	0	0	0	0	0	0	0	0	0	0
0	0	0	0	0	0	0	0	0	0	0	0	0	0	0	0	0	0	0	0	0	0	0	0
0	0	0	0	0	0	0	0	0	0	0	0	0	0	0	0	0	0	0	0	0	0	0	0
0	0	0	0	0	0	0	0	0	0	0	0	0	0	0	0	0	0	0	0	0	0	0	0
0	0	0	0	0	0	0	0	0	0	0	0	0	0	0	0	0	0	0	0	0	0	0	0
0	0	0	0	0	0	0	0	0	0	0	0	0	0	0	0	0	0	0	0	0	0	0	0
0	0	0	0	0	0	0	0	0	0	0	0	0	0	0	0	0	0	0	0	0	0	0	0
0	0	0	0	0	0	0	0	0	0	0	0	0	0	0	0	0	0	0	0	0	0	0	0
600	25	601	25	602	25	603	25	0	0	0	0	0	0	0	0	1	2	3	4	0	0	0	0
604	10	605	10	606	10	607	20	600	10	601	10	602	10	603	20	1	2	3	4	0	0	0	0
608	10	609	10	610	10	611	20	604	10	605	10	606	10	607	20	1	2	3	4	0	0	0	0
612	10	613	10	614	10	615	20	608	10	609	10	610	10	611	20	1	2	3	4	0	0	0	0
616	10	617	10	618	10	619	20	612	10	613	10	614	10	615	20	1	2	3	4	0	0	0	0
620	10	621	10	622	10	623	20	616	10	617	10	618	10	619	20	1	2	3	4	0	0	0	0
624	10	625	10	626	10	627	20	620	10	621	10	622	10	623	20	1	2	3	4	0	0	0	0
628	10	629	10	630	10	631	20	624	10	625	10	626	10	627	20	1	2	3	4	0	0	0	0
632	10	633	10	634	10	635	20	628	10	629	10	630	10	631	20	1	2	3	4	0	0	0	0
636	10	637	10	638	10	639	20	632	10	633	10	634	10	635	20	1	2	3	4	0	0	0	0
640	10	641	10	642	10	643	20	636	10	637	10	638	10	639	20	1	2	3	4	0	0	0	0
644	10	645	10	646	10	647	20	640	10	641	10	642	10	643	20	1	2	3	4	0	0	0	0
648	10	649	10	650	10	651	20	644	10	645	10	646	10	647	20	1	2	3	4	0	0	0	0
652	10	653	10	654	10	655	20	648	10	649	10	650	10	651	20	1	2	3	4	0	0	0	0
656	10	657	10	658	10	659	20	652	10	653	10	654	10	655	20	1	2	3	4	0	0	0	0
660	10	661	10	662	10	663	20	656	10	657	10	658	10	659	20	1	2	3	4	0	0	0	0
664	10	665	10	666	10	667	20	660	10	661	10	662	10	663	20	1	2	3	4	0	0	0	0
668	10	669	10	670	10	671	20	664	10	665	10	666	10	667	20	1	2	3	4	0	0	0	0
672	10	673	10	674	10	675	20	668	10	669	10	670	10	671	20	1	2	3	4	0	0	0	0
676	10	677	10	678	10	679	20	672	10	673	10	674	10	675	20	1	2	3	4	0	0	0	0
680	10	681	10	682	10	683	20	676	10	677	10	678	10	679	20	1	2	3	4	0	0	0	0
684	10	685	10	686	10	687	20	680	10	681	10	682	10	683	20	1	2	3	4	0	0	0	0
688	100	0	0	0	0	0	0	0	0	0	0	0	0	0	0	1	0	0	0	0	0	0	0
689	100	0	0	0	0	0	0	0	0	0	0	0	0	0	0	1	0	0	0	0	0	0	0
1050	40	1051	60	0	0	0	0	0	0	0	0	0	0	0	0	0	0	0	0	0	0	0	0
1050	30	1051	30	1054	40	0	0	0	0	0	0	0	0	0	0	0	0	0	0	0	0	0	0
1050	30	1051	30	1055	40	0	0	0	0	0	0	0	0	0	0	0	0	0	0	0	0	0	0
1050	30	1051	30	1056	40	0	0	0	0	0	0	0	0	0	0	0	0	0	0	0	0	0	0
1050	50	1051	40	1052	7	1053	3	0	0	0	0	0	0	0	0	0	0	0	0	0	0	0	0
0	0	0	0	0	0	0	0	0	0	0	0	0	0	0	0	0	0	0	0	0	0	0	0
0	0	0	0	0	0	0	0	0	0	0	0	0	0	0	0	0	0	0	0	0	0	0	0
0	0	0	0	0	0	0	0	0	0	0	0	0	0	0	0	0	0	0	0	0	0	0	0
0	0	0	0	0	0	0	0	0	0	0	0	0	0	0	0	0	0	0	0	0	0	0	0
0	0	0	0	0	0	0	0	0	0	0	0	0	0	0	0	0	0	0	0	0	0	0	0
0	0	0	0	0	0	0	0	0	0	0	0	0	0	0	0	0	0	0	0	0	0	0	0
0	0	0	0	0	0	0	0	0	0	0	0	0	0	0	0	0	0	0	0	0	0	0	0
0	0	0	0	0	0	0	0	0	0	0	0	0	0	0	0	0	0	0	0	0	0	0	0
0	0	0	0	0	0	0	0	0	0	0	0	0	0	0	0	0	0	0	0	0	0	0	0
0	0	0	0	0	0	0	0	0	0	0	0	0	0	0	0	0	0	0	0	0	0	0	0
0	0	0	0	0	0	0	0	0	0	0	0	0	0	0	0	0	0	0	0	0	0	0	0
0	0	0	0	0	0	0	0	0	0	0	0	0	0	0	0	0	0	0	0	0	0	0	0
0	0	0	0	0	0	0	0	0	0	0	0	0	0	0	0	0	0	0	0	0	0	0	0
1080	25	1081	25	1082	25	1083	25	0	0	0	0	0	0	0	0	1	2	3	4	0	0	0	0
1084	10	1083	10	1085	10	1086	20	1080	10	1081	10	1082	10	1083	20	1	2	3	4	0	0	0	0
1087	10	1088	10	1089	10	1090	20	1084	10	1083	10	1085	10	1086	20	1	2	3	4	0	0	0	0
1091	10	1089	10	1082	10	1092	20	1087	10	1088	10	1089	10	1090	20	1	2	3	4	0	0	0	0
1093	10	1094	10	1095	10	1096	20	1091	10	1089	10	1082	10	1092	20	1	2	3	4	0	0	0	0
1085	10	1097	10	1094	10	1098	20	1093	10	1094	10	1095	10	1096	20	1	2	3	4	0	0	0	0
1099	10	1100	10	1101	10	1091	20	1085	10	1097	10	1094	10	1098	20	1	2	3	4	0	0	0	0
1102	10	1103	10	1091	10	1104	20	1099	10	1100	10	1101	10	1091	20	1	2	3	4	0	0	0	0
1105	10	1106	10	1107	10	1108	20	1102	10	1103	10	1091	10	1104	20	1	2	3	4	0	0	0	0
1109	10	1089	10	1110	10	1111	20	1105	10	1106	10	1107	10	1108	20	1	2	3	4	0	0	0	0
1112	10	1113	10	1114	10	1115	20	1109	10	1089	10	1110	10	1111	20	1	2	3	4	0	0	0	0
1116	10	1117	10	1118	10	1119	20	1112	10	1113	10	1114	10	1115	20	1	2	3	4	0	0	0	0
1120	10	1121	10	1097	10	1122	20	1116	10	1117	10	1118	10	1119	20	1	2	3	4	0	0	0	0
1123	10	1124	10	1125	10	1126	20	1120	10	1121	10	1097	10	1122	20	1	2	3	4	0	0	0	0
1127	10	1128	10	1129	10	1130	20	1123	10	1124	10	1125	10	1126	20	1	2	3	4	0	0	0	0
1131	10	1132	10	1133	10	1134	20	1127	10	1128	10	1129	10	1130	20	1	2	3	4	0	0	0	0
1135	10	1136	10	1127	10	1137	20	1131	10	1132	10	1133	10	1134	20	1	2	3	4	0	0	0	0
1138	10	1139	10	1140	10	1141	20	1135	10	1136	10	1127	10	1137	20	1	2	3	4	0	0	0	0
1142	10	1143	10	1144	10	1128	20	1138	10	1139	10	1140	10	1141	20	1	2	3	4	0	0	0	0
1145	10	1120	10	1146	10	1133	20	1142	10	1143	10	1144	10	1128	20	1	2	3	4	0	0	0	0
1147	10	1148	10	1149	10	1150	20	1145	10	1120	10	1146	10	1133	20	1	2	3	4	0	0	0	0
1151	100	0	0	0	0	0	0	0	0	0	0	0	0	0	0	1	0	0	0	0	0	0	0
1152	100	0	0	0	0	0	0	0	0	0	0	0	0	0	0	1	0	0	0	0	0	0	0
1153	40	1154	60	0	0	0	0	0	0	0	0	0	0	0	0	0	0	0	0	0	0	0	0
1153	30	1154	30	1157	40	0	0	0	0	0	0	0	0	0	0	0	0	0	0	0	0	0	0
1153	30	1154	30	1158	40	0	0	0	0	0	0	0	0	0	0	0	0	0	0	0	0	0	0
1153	30	1154	30	1159	40	0	0	0	0	0	0	0	0	0	0	0	0	0	0	0	0	0	0
1153	30	1154	30	1160	40	0	0	0	0	0	0	0	0	0	0	0	0	0	0	0	0	0	0
1153	30	1154	30	1161	40	0	0	0	0	0	0	0	0	0	0	0	0	0	0	0	0	0	0
1153	50	1154	40	1155	7	1156	3	0	0	0	0	0	0	0	0	0	0	0	0	0	0	0	0
0	0	0	0	0	0	0	0	0	0	0	0	0	0	0	0	0	0	0	0	0	0	0	0
0	0	0	0	0	0	0	0	0	0	0	0	0	0	0	0	0	0	0	0	0	0	0	0
0	0	0	0	0	0	0	0	0	0	0	0	0	0	0	0	0	0	0	0	0	0	0	0
0	0	0	0	0	0	0	0	0	0	0	0	0	0	0	0	0	0	0	0	0	0	0	0
0	0	0	0	0	0	0	0	0	0	0	0	0	0	0	0	0	0	0	0	0	0	0	0
0	0	0	0	0	0	0	0	0	0	0	0	0	0	0	0	0	0	0	0	0	0	0	0
0	0	0	0	0	0	0	0	0	0	0	0	0	0	0	0	0	0	0	0	0	0	0	0
0	0	0	0	0	0	0	0	0	0	0	0	0	0	0	0	0	0	0	0	0	0	0	0
0	0	0	0	0	0	0	0	0	0	0	0	0	0	0	0	0	0	0	0	0	0	0	0
0	0	0	0	0	0	0	0	0	0	0	0	0	0	0	0	0	0	0	0	0	0	0	0
885	17	886	33	885	17	887	33	0	0	0	0	0	0	0	0	1	2	3	4	0	0	0	0
888	10	889	15	890	15	891	20	885	10	886	10	887	20	0	0	1	2	3	4	0	0	0	0
892	10	893	10	894	10	895	20	888	10	889	10	890	10	891	20	1	2	3	4	0	0	0	0
896	10	897	10	889	10	898	20	892	10	893	10	894	10	895	20	1	2	3	4	0	0	0	0
899	10	900	10	901	10	902	20	896	10	897	10	889	10	898	20	1	2	3	4	0	0	0	0
903	10	904	10	905	10	906	20	899	10	900	10	901	10	902	20	1	2	3	4	0	0	0	0
907	10	908	10	909	10	910	20	903	10	904	10	905	10	906	20	1	2	3	4	0	0	0	0
911	10	912	10	913	10	914	20	907	10	908	10	909	10	910	20	1	2	3	4	0	0	0	0
915	10	909	10	916	10	917	20	911	10	912	10	913	10	914	20	1	2	3	4	0	0	0	0
918	10	919	10	920	10	921	20	915	10	909	10	916	10	917	20	1	2	3	4	0	0	0	0
922	10	923	10	924	10	925	20	918	10	919	10	920	10	921	20	1	2	3	4	0	0	0	0
920	10	926	10	927	10	928	20	922	10	923	10	924	10	925	20	1	2	3	4	0	0	0	0
929	10	930	10	931	10	932	20	920	10	926	10	927	10	928	20	1	2	3	4	0	0	0	0
933	10	934	10	935	10	936	20	929	10	930	10	931	10	932	20	1	2	3	4	0	0	0	0
937	10	938	10	939	10	940	20	933	10	934	10	935	10	936	20	1	2	3	4	0	0	0	0
941	10	942	10	943	10	944	20	937	10	938	10	939	10	940	20	1	2	3	4	0	0	0	0
945	10	946	10	947	10	948	20	941	10	942	10	943	10	944	20	1	2	3	4	0	0	0	0
949	10	950	10	951	10	952	20	945	10	946	10	947	10	948	20	1	2	3	4	0	0	0	0
953	10	954	10	955	10	956	20	949	10	950	10	951	10	952	20	1	2	3	4	0	0	0	0
957	10	958	10	959	10	960	20	953	10	954	10	955	10	956	20	1	2	3	4	0	0	0	0
961	10	962	10	963	10	964	20	957	10	958	10	959	10	960	20	1	2	3	4	0	0	0	0
965	10	966	10	967	10	968	20	961	10	962	10	963	10	964	20	1	2	3	4	0	0	0	0
963	10	970	10	971	10	972	20	965	10	966	10	967	10	968	20	1	2	3	4	0	0	0	0
973	100	0	0	0	0	0	0	0	0	0	0	0	0	0	0	1	0	0	0	0	0	0	0
974	100	0	0	0	0	0	0	0	0	0	0	0	0	0	0	1	0	0	0	0	0	0	0
975	40	976	60	0	0	0	0	0	0	0	0	0	0	0	0	0	0	0	0	0	0	0	0
975	30	976	30	981	40	0	0	0	0	0	0	0	0	0	0	0	0	0	0	0	0	0	0
975	30	976	30	981	40	0	0	0	0	0	0	0	0	0	0	0	0	0	0	0	0	0	0
975	30	982	30	983	40	0	0	0	0	0	0	0	0	0	0	0	0	0	0	0	0	0	0
975	30	982	30	984	40	0	0	0	0	0	0	0	0	0	0	0	0	0	0	0	0	0	0
975	50	976	40	977	7	979	3	0	0	0	0	0	0	0	0	0	0	0	0	0	0	0	0
975	50	976	40	978	7	979	3	0	0	0	0	0	0	0	0	0	0	0	0	0	0	0	0
0	0	0	0	0	0	0	0	0	0	0	0	0	0	0	0	0	0	0	0	0	0	0	0
0	0	0	0	0	0	0	0	0	0	0	0	0	0	0	0	0	0	0	0	0	0	0	0
0	0	0	0	0	0	0	0	0	0	0	0	0	0	0	0	0	0	0	0	0	0	0	0
0	0	0	0	0	0	0	0	0	0	0	0	0	0	0	0	0	0	0	0	0	0	0	0
0	0	0	0	0	0	0	0	0	0	0	0	0	0	0	0	0	0	0	0	0	0	0	0
0	0	0	0	0	0	0	0	0	0	0	0	0	0	0	0	0	0	0	0	0	0	0	0
0	0	0	0	0	0	0	0	0	0	0	0	0	0	0	0	0	0	0	0	0	0	0	0
0	0	0	0	0	0	0	0	0	0	0	0	0	0	0	0	0	0	0	0	0	0	0	0
989	25	990	25	991	25	992	25	0	0	0	0	0	0	0	0	1	2	3	4	0	0	0	0
993	10	994	10	995	10	991	20	989	10	990	10	991	10	992	20	1	2	3	4	0	0	0	0
996	10	997	10	998	10	999	20	993	10	994	10	995	10	991	20	1	2	3	4	0	0	0	0
1000	10	1001	10	1002	10	1003	20	996	10	997	10	998	10	999	20	1	2	3	4	0	0	0	0
1004	10	1005	10	1006	10	1007	20	1000	10	1001	10	1002	10	1003	20	1	2	3	4	0	0	0	0
1008	10	1009	10	1010	10	1011	20	1004	10	1005	10	1006	10	1007	20	1	2	3	4	0	0	0	0
1012	10	1013	10	1014	10	1015	20	1008	10	1009	10	1010	10	1011	20	1	2	3	4	0	0	0	0
1016	10	1017	10	995	10	1018	20	1012	10	1013	10	1014	10	1015	20	1	2	3	4	0	0	0	0
1019	10	1020	10	1021	10	1022	20	1016	10	1017	10	995	10	1018	20	1	2	3	4	0	0	0	0
1023	10	1024	10	1025	10	1026	20	1019	10	1020	10	1021	10	1022	20	1	2	3	4	0	0	0	0
1027	10	1028	10	1027	10	1029	20	1023	10	1024	10	1025	10	1026	20	1	2	3	4	0	0	0	0
1030	10	1031	10	1032	10	1033	20	1027	10	1028	10	1027	10	1029	20	1	2	3	4	0	0	0	0
1034	10	1035	10	1036	10	1037	20	1030	10	1031	10	1032	10	1033	20	1	2	3	4	0	0	0	0
1038	10	1039	10	1040	10	1037	20	1034	10	1035	10	1036	10	1037	20	1	2	3	4	0	0	0	0
1041	10	1042	10	1043	10	1045	20	1038	10	1039	10	1040	10	1037	20	1	2	3	4	0	0	0	0
1045	10	1046	10	1047	10	1038	20	1041	10	1042	10	1043	10	1045	20	1	2	3	4	0	0	0	0
1059	10	1060	10	1061	10	1062	20	1041	10	1042	10	1043	10	1045	20	1	2	3	4	0	0	0	0
1063	10	1064	10	1065	10	1066	20	1059	10	1060	10	1061	10	1062	20	1	2	3	4	0	0	0	0
1067	10	1068	10	1069	10	1070	20	1063	10	1064	10	1065	10	1066	20	1	2	3	4	0	0	0	0
1071	10	1072	10	1073	10	1075	20	1067	10	1068	10	1069	10	1070	20	1	2	3	4	0	0	0	0
1075	10	1076	10	1077	10	1078	20	1071	10	1072	10	1073	10	1075	20	1	2	3	4	0	0	0	0
1165	25	1166	25	1167	25	1170	25	0	0	0	0	0	0	0	0	1	2	3	4	0	0	0	0
1169	10	1170	10	1171	10	1172	20	1165	10	1166	10	1167	10	1170	20	1	2	3	4	0	0	0	0
1173	10	1174	10	1175	10	1176	20	1165	10	1166	10	1167	10	1170	20	1	2	3	4	0	0	0	0
1174	10	1177	10	1179	10	1182	20	1173	10	1174	10	1175	10	1176	20	1	2	3	4	0	0	0	0
1179	10	1180	10	1181	10	1182	20	1174	10	1177	10	1179	10	1182	20	1	2	3	4	0	0	0	0
1183	100	0	0	0	0	0	0	0	0	0	0	0	0	0	0	1	0	0	0	0	0	0	0
1184	100	0	0	0	0	0	0	0	0	0	0	0	0	0	0	1	0	0	0	0	0	0	0
1185	40	1189	60	0	0	0	0	0	0	0	0	0	0	0	0	0	0	0	0	0	0	0	0
1185	50	1189	40	1193	7	1187	3	0	0	0	0	0	0	0	0	0	0	0	0	0	0	0	0
1185	40	1190	60	0	0	0	0	0	0	0	0	0	0	0	0	0	0	0	0	0	0	0	0
1185	50	1190	40	1194	7	1187	3	0	0	0	0	0	0	0	0	0	0	0	0	0	0	0	0
1185	40	1191	60	0	0	0	0	0	0	0	0	0	0	0	0	0	0	0	0	0	0	0	0
1185	50	1191	40	1195	7	1187	3	0	0	0	0	0	0	0	0	0	0	0	0	0	0	0	0
1186	40	1192	60	0	0	0	0	0	0	0	0	0	0	0	0	0	0	0	0	0	0	0	0
1186	50	1192	40	1196	7	1188	3	0	0	0	0	0	0	0	0	0	0	0	0	0	0	0	0
990	33	991	33	999	34	0	0	0	0	0	0	0	0	0	0	0	0	0	0	0	0	0	0
1010	33	1029	33	1033	34	0	0	0	0	0	0	0	0	0	0	0	0	0	0	0	0	0	0
1059	33	1034	33	1035	34	0	0	0	0	0	0	0	0	0	0	0	0	0	0	0	0	0	0
1060	33	1063	33	1078	34	0	0	0	0	0	0	0	0	0	0	0	0	0	0	0	0	0	0
0	0	0	0	0	0	0	0	0	0	0	0	0	0	0	0	0	0	0	0	0	0	0	0
0	0	0	0	0	0	0	0	0	0	0	0	0	0	0	0	0	0	0	0	0	0	0	0
0	0	0	0	0	0	0	0	0	0	0	0	0	0	0	0	0	0	0	0	0	0	0	0
